timestamp,roll,pitch,yaw
1525807157524126,-0.296625,-0.0946259,0.77059
1525807157556139,-0.287815,-0.112621,0.76705
1525807157571140,-0.278001,-0.129435,0.762718
1525807157592126,-0.267999,-0.150601,0.75886
1525807157606167,-0.262799,-0.175488,0.753278
1525807157630135,-0.261013,-0.202972,0.748254
1525807157645141,-0.256628,-0.232664,0.74433
1525807157668191,-0.249769,-0.263658,0.740341
1525807157722158,-0.243209,-0.295108,0.736098
1525807157724156,-0.234501,-0.32509,0.730569
1525807157728139,-0.223422,-0.353711,0.722191
1525807157750138,-0.212429,-0.383299,0.712396
1525807157765155,-0.199008,-0.414069,0.699
1525807157788157,-0.179821,-0.441904,0.680878
1525807157803156,-0.153436,-0.464497,0.659353
1525807157846191,-0.117914,-0.483325,0.635767
1525807157856156,-0.0785159,-0.495787,0.612188
1525807157863157,-0.0375542,-0.507952,0.588721
1525807157885135,0.00247903,-0.517221,0.568684
1525807157907159,0.0412023,-0.522277,0.550905
1525807157930148,0.0743905,-0.524719,0.53464
1525807157945146,0.0980038,-0.526258,0.518979
1525807157968142,0.111929,-0.527474,0.505058
1525807157991129,0.120939,-0.526868,0.495516
1525807158005136,0.130114,-0.524112,0.489384
1525807158036129,0.138361,-0.520724,0.484672
1525807158051157,0.142328,-0.517766,0.480951
1525807158065141,0.14385,-0.514433,0.477328
1525807158089159,0.144891,-0.511034,0.474103
1525807158111140,0.14601,-0.507002,0.470976
1525807158125124,0.146921,-0.503558,0.467665
1525807158149125,0.14978,-0.50033,0.46416
1525807158178219,0.153703,-0.497955,0.461293
1525807158185192,0.156006,-0.498156,0.457497
1525807158208214,0.154449,-0.49755,0.452031
1525807158231214,0.157258,-0.494808,0.445805
1525807158252204,0.168314,-0.491761,0.442376
1525807158268205,0.176855,-0.486687,0.438109
1525807158291223,0.18135,-0.483625,0.433521
1525807158312221,0.181329,-0.482135,0.429327
1525807158328202,0.183777,-0.479338,0.425504
1525807158351224,0.19226,-0.474387,0.423658
1525807158373189,0.201992,-0.468723,0.422696
1525807158388240,0.205518,-0.463978,0.421406
1525807158411196,0.20896,-0.460789,0.417867
1525807158432223,0.209997,-0.45886,0.414631
1525807158455195,0.20722,-0.456134,0.41436
1525807158471201,0.202968,-0.460867,0.420948
1525807158493201,0.202146,-0.466137,0.424868
1525807158508195,0.206235,-0.47219,0.429398
1525807158537207,0.195864,-0.480312,0.432586
1525807158552256,0.179841,-0.487219,0.431421
1525807158569195,0.179951,-0.491096,0.433193
1525807158591222,0.191115,-0.491395,0.437653
1525807158612258,0.200218,-0.491699,0.440215
1525807158628218,0.20367,-0.492288,0.441755
1525807158651224,0.201916,-0.492914,0.441988
1525807158672258,0.199296,-0.491864,0.441866
1525807158688189,0.202712,-0.490611,0.443335
1525807158711203,0.209495,-0.489392,0.442781
1525807158732195,0.20568,-0.487466,0.441623
1525807158748190,0.19554,-0.49077,0.448376
1525807158771195,0.190608,-0.496691,0.456446
1525807158792197,0.189965,-0.498804,0.459518
1525807158808224,0.19303,-0.503471,0.460232
1525807158837312,0.189541,-0.507373,0.460382
1525807158853251,0.185819,-0.508757,0.462143
1525807158876285,0.186466,-0.508519,0.462905
1525807158890245,0.188291,-0.507684,0.463672
1525807158913277,0.194253,-0.506264,0.462948
1525807158936245,0.202884,-0.505051,0.459133
1525807158950276,0.199928,-0.498812,0.457209
1525807158973254,0.189433,-0.502149,0.466084
1525807158996248,0.188194,-0.506064,0.472638
1525807159017277,0.191153,-0.508725,0.477108
1525807159033307,0.176942,-0.512442,0.476083
1525807159056310,0.161368,-0.517428,0.472572
1525807159077306,0.164394,-0.519323,0.476633
1525807159093306,0.170821,-0.518097,0.480467
1525807159116346,0.177278,-0.516854,0.479817
1525807159137338,0.180347,-0.515216,0.478991
1525807159153306,0.181145,-0.512428,0.477171
1525807159176322,0.187185,-0.508948,0.473711
1525807159204338,0.18963,-0.504989,0.469869
1525807159213442,0.185031,-0.499054,0.468637
1525807159236416,0.17329,-0.503087,0.477079
1525807159257493,0.171281,-0.505441,0.479979
1525807159273438,0.170796,-0.50657,0.479791
1525807159280427,0.164583,-0.508863,0.474706
1525807159301441,0.163571,-0.510518,0.473617
1525807159324426,0.164861,-0.509918,0.475264
1525807159340438,0.168679,-0.508275,0.47399
1525807159369469,0.178238,-0.505893,0.470719
1525807159384438,0.182301,-0.503157,0.46707
1525807159400449,0.186205,-0.499428,0.463926
1525807159421459,0.197525,-0.495695,0.458549
1525807159444468,0.198738,-0.489737,0.452368
1525807159460438,0.184908,-0.489621,0.455941
1525807159481442,0.174029,-0.494764,0.463247
1525807159504438,0.178196,-0.496334,0.464047
1525807159520436,0.180945,-0.497728,0.461676
1525807159541443,0.174099,-0.500301,0.458521
1525807159564439,0.169933,-0.502115,0.460614
1525807159580438,0.171459,-0.501024,0.461874
1525807159601460,0.180184,-0.499383,0.461137
1525807159624470,0.185771,-0.497926,0.458194
1525807159640461,0.183986,-0.494731,0.456353
1525807159661459,0.189885,-0.4913,0.455365
1525807159684427,0.200831,-0.489169,0.45113
1525807159699468,0.199358,-0.482511,0.448778
1525807159721535,0.185418,-0.485934,0.457136
1525807159743530,0.182326,-0.490319,0.462495
1525807159762500,0.189528,-0.493222,0.464266
1525807159781513,0.177741,-0.496105,0.460641
1525807159804499,0.160569,-0.498953,0.456795
1525807159821496,0.160123,-0.500041,0.459873
1525807159844497,0.168879,-0.497603,0.462546
1525807159863528,0.179579,-0.49464,0.461452
1525807159881496,0.184312,-0.493086,0.459362
1525807159901512,0.185202,-0.491296,0.457125
1525807159923581,0.19293,-0.488265,0.45402
1525807159941554,0.192981,-0.484232,0.451173
1525807159961549,0.186601,-0.483681,0.453933
1525807159983566,0.178608,-0.489704,0.462189
1525807160001550,0.178742,-0.492776,0.4634
1525807160021578,0.175346,-0.495611,0.461366
1525807160043565,0.165567,-0.498798,0.460555
1525807160061549,0.158928,-0.500309,0.46405
1525807160084565,0.161409,-0.500038,0.466637
1525807160103617,0.171691,-0.499146,0.465403
1525807160121558,0.175066,-0.498123,0.462374
1525807160141564,0.174711,-0.495615,0.460732
1525807160163563,0.180693,-0.493451,0.459394
1525807160181550,0.181443,-0.491061,0.457718
1525807160201581,0.176678,-0.488999,0.460604
1525807160223586,0.164707,-0.495598,0.470491
1525807160241559,0.160945,-0.500164,0.472195
1525807160261663,0.159645,-0.503329,0.47139
1525807160283644,0.155185,-0.506739,0.4706
1525807160301627,0.151099,-0.508605,0.473924
1525807160321695,0.152464,-0.507872,0.475431
1525807160339659,0.159382,-0.506986,0.474692
1525807160361668,0.161049,-0.505623,0.471172
1525807160381701,0.159028,-0.502425,0.468819
1525807160403685,0.166489,-0.49889,0.467655
1525807160421679,0.175929,-0.495488,0.463962
1525807160441735,0.17253,-0.489851,0.464114
1525807160463735,0.154157,-0.494538,0.473138
1525807160481668,0.146128,-0.500432,0.476655
1525807160501683,0.150062,-0.502554,0.476201
1525807160523735,0.151052,-0.505138,0.475158
1525807160541670,0.150036,-0.50711,0.476414
1525807160561701,0.152219,-0.506322,0.476826
1525807160579684,0.158679,-0.504731,0.474755
1525807160601689,0.160133,-0.502306,0.471437
1525807160621700,0.164183,-0.498602,0.468866
1525807160643701,0.172277,-0.494374,0.465483
1525807160661674,0.172525,-0.491156,0.462393
1525807160681700,0.166333,-0.48862,0.463885
1525807160699710,0.158531,-0.494491,0.471189
1525807160726734,0.155781,-0.497884,0.470878
1525807160741700,0.157592,-0.499675,0.467515
1525807160763683,0.157667,-0.5024,0.466424
1525807160781680,0.154416,-0.50253,0.46784
1525807160801785,0.15654,-0.501042,0.468025
1525807160819753,0.160361,-0.499258,0.466754
1525807160841722,0.159093,-0.495418,0.464663
1525807160861791,0.165373,-0.491506,0.463139
1525807160883793,0.173277,-0.488585,0.459305
1525807160901793,0.169547,-0.48187,0.457846
1525807160922825,0.155545,-0.487139,0.467462
1525807160943892,0.149866,-0.493684,0.472196
1525807160961827,0.146767,-0.49676,0.471303
1525807160982824,0.139082,-0.500313,0.469058
1525807161003872,0.136141,-0.503661,0.471708
1525807161021824,0.138947,-0.504153,0.475861
1525807161042865,0.143594,-0.503645,0.476576
1525807161059880,0.14587,-0.503193,0.475626
1525807161081865,0.147682,-0.501229,0.474826
1525807161101880,0.155914,-0.499049,0.472521
1525807161124898,0.156318,-0.495964,0.469194
1525807161140865,0.148533,-0.496196,0.473257
1525807161161866,0.142187,-0.501733,0.48047
1525807161185883,0.143145,-0.503311,0.478786
1525807161200869,0.145814,-0.5046,0.475621
1525807161221864,0.145288,-0.506319,0.474029
1525807161238881,0.142781,-0.506122,0.474399
1525807161260866,0.145765,-0.504584,0.473674
1525807161281897,0.153588,-0.501491,0.472222
1525807161297866,0.163109,-0.499172,0.469477
1525807161320868,0.164649,-0.495962,0.4649
1525807161343897,0.156585,-0.497261,0.468611
1525807161357874,0.149089,-0.501747,0.475003
1525807161380868,0.150065,-0.503525,0.474755
1525807161403880,0.151096,-0.505249,0.473164
1525807161424914,0.149395,-0.507288,0.472371
1525807161440868,0.148716,-0.507372,0.474133
1525807161463898,0.15168,-0.505312,0.473423
1525807161477876,0.157646,-0.502441,0.47139
1525807161500865,0.162447,-0.499575,0.469778
1525807161523933,0.164359,-0.497891,0.467151
1525807161537903,0.160655,-0.493643,0.466786
1525807161560865,0.153946,-0.497745,0.474306
1525807161583896,0.150586,-0.500749,0.476224
1525807161604931,0.150764,-0.500888,0.474898
1525807161621008,0.149801,-0.502236,0.471557
1525807161644036,0.151535,-0.5019,0.472343
1525807161658001,0.154564,-0.499812,0.474115
1525807161681015,0.15816,-0.498525,0.472915
1525807161704004,0.161306,-0.497886,0.471786
1525807161718022,0.157236,-0.497565,0.471561
1525807161741060,0.154244,-0.497258,0.470198
1525807161764042,0.152601,-0.495513,0.469967
1525807161778060,0.150377,-0.497095,0.473468
1525807161801077,0.151482,-0.499065,0.476313
1525807161824044,0.155064,-0.499758,0.476486
1525807161845045,0.157729,-0.501586,0.47622
1525807161861059,0.155702,-0.502551,0.474968
1525807161884052,0.151996,-0.50205,0.474559
1525807161905066,0.154515,-0.499871,0.475456
1525807161921109,0.164461,-0.497459,0.473119
1525807161943128,0.16758,-0.49348,0.467544
1525807161965096,0.160878,-0.492991,0.470927
1525807161981177,0.154562,-0.495297,0.476134
1525807162003165,0.156793,-0.496093,0.474825
1525807162025150,0.159079,-0.496552,0.472963
1525807162041179,0.155902,-0.497032,0.472135
1525807162064150,0.155451,-0.496309,0.473202
1525807162085153,0.159556,-0.494733,0.473812
1525807162101180,0.164274,-0.492839,0.472751
1525807162123181,0.165437,-0.491563,0.471711
1525807162144177,0.16435,-0.491232,0.471222
1525807162161177,0.163865,-0.4916,0.471169
1525807162183177,0.163285,-0.491912,0.471691
