timestamp,emg1,emg2,emg3,emg4,emg5,emg6,emg7,emg8
1525807143471853,0,-1,-2,-7,-3,1,13,2
1525807143471853,-1,-1,0,-5,-7,-1,-9,-5
1525807143471853,-1,-1,0,-4,-6,1,-5,-3
1525807143471853,1,0,4,10,8,7,-2,0
1525807143472857,-2,-2,-6,-16,-11,-5,-3,-1
1525807143472857,0,-1,-3,2,2,-2,3,0
1525807143473851,-2,-2,-3,-6,2,3,4,-1
1525807143473851,1,1,4,3,-3,-12,-6,-2
1525807143476852,-2,-1,3,11,0,7,-2,-1
1525807143476852,0,-1,-1,-14,-2,2,2,0
1525807143483852,-1,-1,-1,-1,-7,-4,4,2
1525807143483852,-1,-1,-3,7,8,-5,2,-3
1525807143494891,1,0,3,8,4,-7,-1,-3
1525807143494891,0,-2,0,2,-4,-8,-4,0
1525807143507885,-3,-1,-3,1,6,4,-10,-6
1525807143507885,-1,0,-2,-15,-7,2,3,2
1525807143514853,-2,-1,2,0,-2,-2,-4,-3
1525807143514853,-1,-1,2,16,0,5,-2,1
1525807143528884,3,2,1,-7,2,5,-3,1
1525807143528884,-2,0,3,5,-3,-11,0,-1
1525807143538918,-2,-1,-4,-4,3,11,-5,-1
1525807143538918,0,0,0,2,-2,-2,11,2
1525807143553885,-2,1,1,3,-4,-15,-5,-5
1525807143553885,-1,-2,-1,4,-2,5,-10,1
1525807143592884,-1,-1,-2,-12,-6,3,-1,-1
1525807143592884,0,1,0,8,6,-1,1,-1
1525807143593863,0,-1,1,3,-4,-5,1,-1
1525807143593863,1,0,4,4,-5,-5,-6,1
1525807143597884,-2,-2,-7,-9,-2,8,-2,-1
1525807143597884,0,-1,-4,-5,-3,5,1,0
1525807143598856,0,0,0,-1,1,-11,1,0
1525807143598856,-2,0,1,0,-3,-8,-1,-1
1525807143603885,0,3,4,8,3,-10,3,2
1525807143603885,2,1,0,-2,-2,2,-6,-1
1525807143611884,-1,-3,-7,-6,5,11,9,2
1525807143611884,-1,1,0,-7,-8,-2,0,0
1525807143618883,-1,-1,0,4,4,-14,-6,-2
1525807143618883,-2,-3,-2,-3,0,-5,-10,-6
1525807143634918,0,0,1,-3,-5,0,-4,0
1525807143634918,2,1,1,0,-5,-13,0,-1
1525807143641974,-1,-2,-4,1,1,0,0,-1
1525807143641974,0,0,1,-3,3,-6,-3,1
1525807143664990,1,-1,3,0,-9,6,-4,-2
1525807143664990,-2,-4,-9,-2,1,-1,-2,-1
1525807143666975,-1,2,4,6,3,0,2,0
1525807143666975,-3,-4,-4,-13,-6,8,4,1
1525807143680006,0,3,1,4,0,-25,-8,-1
1525807143680006,0,-2,0,2,2,5,6,1
1525807143687975,2,0,3,3,10,26,7,2
1525807143687975,-2,0,4,5,-5,-7,-3,-2
1525807143703003,-2,-5,-8,-10,-4,-6,-2,-3
1525807143703003,0,1,5,11,17,13,-6,3
1525807143704006,2,1,-2,-6,-4,-2,5,2
1525807143704006,-1,-3,0,7,-5,-10,-6,-2
1525807143725004,1,0,1,-2,-4,15,11,0
1525807143725004,-5,-5,-11,-15,-10,-4,-13,-9
1525807143726975,6,6,11,15,24,17,12,12
1525807143726975,-1,2,4,4,2,-2,6,1
1525807143748004,-2,0,2,1,-5,-1,-11,-5
1525807143748004,-2,-2,-9,-10,-17,-20,9,-4
1525807143749005,-6,-6,-10,-8,-16,-38,-20,-11
1525807143749005,4,4,7,7,17,77,20,5
1525807143770004,0,1,3,0,-1,6,10,4
1525807143770004,0,-1,-2,6,17,4,7,0
1525807143771975,-3,-3,-1,-15,-19,-24,-7,-5
1525807143771975,0,1,-4,-2,-4,-10,-6,0
1525807143785005,0,1,-1,8,13,-6,-11,-1
1525807143785005,0,1,2,-2,2,15,3,2
1525807143786982,-1,-2,3,5,-4,8,-1,-1
1525807143786982,-1,-2,-6,-10,-8,-19,2,0
1525807143799005,1,1,2,9,1,20,6,1
1525807143799005,-1,-1,-8,-17,-1,8,8,1
1525807143807982,-2,1,0,3,6,-10,-12,-2
1525807143807982,-1,1,1,4,-3,-15,-12,3
1525807143823096,-4,-4,-7,-5,-5,-16,0,-7
1525807143823096,1,4,9,4,2,1,-2,0
1525807143829093,-3,-1,1,15,11,12,7,-2
1525807143829093,-1,-3,-4,-10,1,6,-10,-3
1525807143845173,1,-3,-7,-13,-9,-13,0,1
1525807143845173,-1,-1,1,7,-5,5,-12,-3
1525807143847124,2,1,-3,-13,4,27,-9,-1
1525807143847124,-2,-4,-5,-2,-2,-24,-3,-3
1525807143859106,1,1,-1,-3,0,-5,-4,1
1525807143859106,-1,0,3,1,-4,12,10,0
1525807143868120,0,-2,-3,3,-3,3,0,0
1525807143868120,0,-2,-2,-4,-4,-10,3,-2
1525807143883139,-2,-2,-1,-7,1,10,2,-1
1525807143883139,-1,-1,-3,4,3,3,-1,1
1525807143884132,1,3,4,4,-6,-7,4,1
1525807143884132,-1,0,-1,-2,0,5,10,0
1525807143905177,1,0,3,-1,4,6,-22,-1
1525807143905177,-1,-2,-4,-5,-8,-13,13,0
1525807143907139,-1,-3,-2,-1,-3,3,-8,0
1525807143907139,1,0,-1,0,-4,-6,11,1
1525807143919120,-2,0,1,3,3,-8,-5,-2
1525807143919120,1,2,3,-7,1,5,3,3
1525807143928124,0,-1,1,21,1,1,-1,-1
1525807143928124,-5,-4,-4,-8,-4,-4,-6,-7
1525807143943138,3,1,-1,-4,0,9,7,9
1525807143943138,-1,-3,4,16,5,-3,-11,-4
1525807143944144,-2,-3,-3,-24,-13,-11,4,-3
1525807143944144,5,9,5,2,6,3,-5,1
1525807143965110,-9,-14,-12,28,10,-3,-5,-9
1525807143965110,0,1,-2,-10,-10,-5,-2,0
1525807143967119,8,10,5,3,7,2,5,7
1525807143967119,-5,-8,-5,-6,-14,-29,5,-2
1525807143979207,-3,-2,5,5,-3,-1,-2,-6
1525807143979207,1,1,-11,-13,7,8,-7,6
1525807143988208,-7,-9,-3,2,-11,-11,-10,-9
1525807143988208,6,8,-2,-11,5,3,0,3
1525807144003304,-3,-5,1,1,-2,6,-1,-1
1525807144003304,-3,-3,0,4,-4,-18,6,-4
1525807144004258,-2,-5,-7,-7,-3,13,-6,0
1525807144004258,0,-1,2,1,-4,-12,-2,2
1525807144025316,2,6,5,6,5,-6,2,-1
1525807144025316,0,0,-2,2,8,8,0,-1
1525807144027254,3,5,-1,-2,4,10,7,2
1525807144027254,-2,-3,2,9,-4,9,4,0
1525807144039281,-1,1,-2,-9,7,0,0,1
1525807144039281,2,0,4,2,-3,8,5,3
1525807144048251,-2,-2,-4,-6,-1,-11,-3,-7
1525807144048251,1,-2,-1,2,0,10,-7,0
1525807144070323,0,3,0,-8,-5,-2,3,0
1525807144070323,-1,2,1,3,-2,-12,-12,-2
1525807144072323,1,0,5,0,0,5,20,6
1525807144072323,-4,-2,-2,0,7,5,0,-5
1525807144084322,1,1,-5,-9,-4,9,-3,4
1525807144084322,-4,-3,0,5,-3,-6,-3,-6
1525807144085292,-1,-1,-3,-3,0,-1,1,0
1525807144085292,0,2,4,6,1,6,6,1
1525807144107323,0,-1,-1,1,-5,-3,20,2
1525807144107323,-1,-2,0,-4,0,-1,-25,-5
1525807144108322,-3,-2,-2,2,1,-3,-3,1
1525807144108322,1,0,-2,2,0,-2,0,1
1525807144122376,-1,-1,-1,-4,1,-1,-1,-4
1525807144122376,-2,2,-1,-3,-3,-8,6,1
1525807144123397,-1,2,1,-2,-2,-8,4,1
1525807144123397,-1,-2,-5,-6,4,8,-6,-1
1525807144144488,3,0,0,13,7,-4,2,2
1525807144144488,0,-3,1,3,0,37,6,-2
1525807144145455,1,2,6,-9,-7,0,-7,1
1525807144145455,-2,0,-4,10,7,-1,0,0
1525807144167431,-2,-2,-4,-9,-10,-5,0,-2
1525807144167431,-1,1,5,7,7,-7,-14,-3
1525807144168422,-2,-6,-16,-21,-1,16,-3,-2
1525807144168422,-1,-1,-2,-7,-8,-7,5,-2
1525807144182459,-2,-3,-1,-2,0,12,8,0
1525807144182459,0,1,-1,-1,-6,-12,0,2
1525807144183480,-2,-1,6,11,3,-14,1,-2
1525807144183480,-1,-2,-2,1,2,6,-3,-4
1525807144204432,0,-1,-3,-6,4,8,2,4
1525807144204432,0,-1,3,-7,-16,-8,14,1
1525807144205422,1,0,-7,-4,-3,-7,-14,-3
1525807144205422,1,1,5,12,14,12,6,3
1525807144227452,0,1,5,2,-4,-29,-1,-2
1525807144227452,1,-1,3,7,7,11,6,2
1525807144228445,0,-1,-4,-10,-7,-11,-3,0
1525807144228445,-2,-2,3,6,-6,-9,-3,-3
1525807144242448,0,0,-2,-15,-3,10,-4,0
1525807144242448,1,-1,-4,-3,7,-6,-5,2
1525807144243480,-3,-3,-3,13,5,5,7,-4
1525807144243480,1,-1,-2,-1,-3,0,-10,2
1525807144264508,0,0,0,-1,-3,3,0,-1
1525807144264508,0,1,3,-1,-7,-6,2,1
1525807144265501,0,1,0,9,10,0,-4,0
1525807144265501,-2,-2,3,-12,-14,-6,-6,-5
1525807144287524,0,-3,-7,13,6,3,-1,0
1525807144287524,-3,-2,0,1,2,5,0,-3
1525807144288501,-1,-3,-1,-10,-8,-7,6,1
1525807144288501,-4,-3,-2,-1,-6,-6,4,-1
1525807144302572,5,8,8,-3,5,4,-3,4
1525807144302572,-1,-1,-6,-8,3,-2,-3,-2
1525807144302572,1,0,1,3,0,4,3,1
1525807144302572,-1,-2,1,9,3,-13,3,-2
1525807144324630,-4,-5,-4,-14,-11,-14,-20,-5
1525807144324630,0,-5,-15,-3,1,-3,-2,-4
1525807144325587,3,6,9,6,6,3,-1,0
1525807144325587,1,0,1,-9,-8,8,9,2
1525807144347630,-5,-6,2,16,-1,-35,-11,-7
1525807144347630,-9,-15,-4,-18,-18,-12,-7,-6
1525807144347630,11,19,3,8,12,12,16,11
1525807144347630,3,5,3,3,4,10,7,1
1525807144362572,-3,-5,-3,-8,0,-2,-15,-4
1525807144362572,-7,-5,-5,-3,-2,-3,-1,-4
1525807144362572,-8,-10,-3,4,-9,7,-1,-5
1525807144362572,-1,-1,-3,-3,3,13,-14,-5
1525807144386567,2,3,2,2,-1,-11,14,4
1525807144386567,-1,-1,1,7,4,-5,2,2
1525807144386567,-2,-3,6,-5,-9,2,-5,-4
1525807144386567,0,-4,-14,2,14,0,0,2
1525807144407665,-1,-2,-1,3,1,9,3,1
1525807144407665,1,5,2,-3,-9,-7,-6,-2
1525807144407665,-1,-1,3,3,1,-9,2,-1
1525807144407665,-1,-3,0,-7,-9,0,-2,0
1525807144422637,0,1,1,-4,-4,-7,0,-2
1525807144422637,4,5,4,19,9,5,8,3
1525807144422637,-2,-4,-9,-19,-5,7,-8,-3
1525807144422637,-2,-2,0,2,2,0,1,0
1525807144444669,-2,-1,-1,-8,-2,19,3,0
1525807144444669,3,6,5,4,0,-27,7,-1
1525807144445668,-2,-4,1,1,6,18,-2,2
1525807144445668,-1,-1,-1,5,3,-14,-12,-4
1525807144467664,0,0,1,4,-3,-2,-1,-3
1525807144467664,-1,1,0,-6,-5,4,-3,3
1525807144467664,0,-1,-5,-2,-4,-11,16,1
1525807144467664,-1,0,1,0,2,6,12,3
1525807144482636,-2,-2,-3,-3,-1,3,-18,-8
1525807144482636,1,-1,0,3,6,13,12,1
1525807144482636,2,-1,2,-12,-16,-11,-7,-3
1525807144482636,0,0,-4,10,12,-2,7,2
1525807144504651,0,0,2,-2,-4,-4,-1,-1
1525807144504651,2,3,2,8,7,15,-4,0
1525807144505636,0,-1,-1,-1,0,-25,-9,-2
1525807144505636,1,2,4,-8,-14,-5,6,2
1525807144527653,0,-3,-7,-2,3,3,0,1
1525807144527653,-1,-1,-1,-7,-5,-8,-4,-3
1525807144527653,-2,-4,-2,2,-1,2,-10,-2
1525807144527653,-6,0,1,5,4,-7,-9,-2
1525807144542655,3,5,5,11,10,26,22,11
1525807144542655,-1,-4,-6,-8,-1,-8,-1,-3
1525807144542655,-2,-1,-2,-2,-8,-11,0,-3
1525807144542655,1,0,-3,-3,-2,20,1,-1
1525807144563662,1,3,5,4,6,3,0,5
1525807144563662,1,2,6,12,6,-8,4,0
1525807144572702,-2,-3,-7,-2,5,8,-9,-4
1525807144572702,2,0,2,-7,-8,-12,0,0
1525807144587656,-2,0,-1,-5,-5,-11,1,-4
1525807144587656,1,-1,-2,3,3,4,6,3
1525807144587656,-2,0,3,-4,0,-3,1,-2
1525807144587656,-2,-1,2,24,8,-12,-7,-3
1525807144609651,-4,-3,-10,-16,-13,-30,-7,-4
1525807144609651,0,-1,-1,-11,-3,12,2,-1
1525807144610648,0,-1,2,14,6,0,-8,0
1525807144610648,1,-3,-4,-16,-7,1,-3,1
1525807144623668,1,1,3,7,-1,-4,0,-4
1525807144623668,-3,1,4,13,9,0,-13,-3
1525807144632650,-2,-5,-11,-3,6,7,8,5
1525807144632650,-2,-3,2,9,-2,-13,-7,-5
1525807144647660,2,4,1,-21,-6,12,-1,2
1525807144647660,2,3,3,12,3,5,2,1
1525807144647660,0,-1,-5,-22,-5,6,6,1
1525807144647660,-2,-3,2,10,8,7,0,-4
1525807144669704,-9,-15,-10,-18,-16,-5,-11,-8
1525807144669704,6,9,2,27,14,-2,5,4
1525807144670656,-2,-3,4,-7,-2,-7,1,-5
1525807144670656,-3,-8,-14,-17,-3,4,-6,-2
1525807144692725,4,6,7,14,6,16,11,5
1525807144692725,-7,-11,-9,-24,-12,0,-7,-4
1525807144693719,1,2,4,11,1,0,0,-1
1525807144693719,-3,-1,-2,-9,-7,-9,-12,-4
1525807144707710,-1,-4,-2,7,8,29,9,1
1525807144707710,0,-1,0,-7,-3,-1,-15,-1
1525807144707710,1,2,1,6,6,10,11,-1
1525807144707710,1,0,4,-3,-6,-15,2,1
1525807144729777,2,3,2,11,8,1,3,3
1525807144729777,1,1,-4,-17,1,18,3,2
1525807144730729,2,4,4,12,3,-13,-2,2
1525807144730729,-1,1,-2,-1,-4,-11,-5,-5
1525807144752777,-2,1,-1,-7,-5,0,-10,-1
1525807144752777,0,1,1,8,7,-15,5,-2
1525807144753722,-1,0,1,10,-1,6,1,-2
1525807144753722,3,4,4,-17,-10,-11,-4,0
1525807144775742,-2,-3,-10,1,14,-7,2,-2
1525807144775742,-2,-3,3,-1,-11,2,2,-1
1525807144775742,-1,0,-4,-16,-4,-3,0,0
1525807144775742,3,3,4,10,3,2,6,3
1525807144789710,-3,-3,-1,-11,-6,7,-1,-3
1525807144789710,0,0,2,1,0,2,-2,2
1525807144790710,0,0,1,6,3,-5,5,2
1525807144790710,-1,-1,-2,-3,6,23,-11,-1
1525807144812774,0,2,4,7,1,-11,21,3
1525807144812774,-1,-1,-2,-3,-3,-14,-7,-2
1525807144813763,1,0,2,0,-5,1,-1,0
1525807144813763,-2,-2,-3,-1,-4,-8,7,1
1525807144826769,1,0,0,1,-4,0,-12,-1
1525807144826769,-1,-1,-2,-3,-3,0,-5,-1
1525807144827780,-2,0,8,3,-11,-32,-2,-3
1525807144827780,-1,-2,-8,3,10,25,7,5
1525807144849805,0,1,5,-1,-7,5,-8,-3
1525807144849805,-3,-2,-2,-1,-10,-35,9,-1
1525807144850803,-3,-7,-19,-11,7,-3,-20,-7
1525807144850803,-1,2,0,-1,-7,13,7,0
1525807144872795,-1,-1,0,0,-3,-2,6,-1
1525807144872795,-3,-2,-5,-14,-4,1,-14,-2
1525807144873761,0,2,1,-3,-7,-12,6,2
1525807144873761,-3,-3,2,-2,-5,-17,-8,-4
1525807144886779,1,-1,-3,4,3,-11,8,0
1525807144886779,0,0,4,6,0,17,9,-1
1525807144887761,0,-2,-5,-10,-4,1,-3,0
1525807144887761,-2,-1,-2,-2,2,6,-13,-4
1525807144909793,1,1,4,-5,-3,-6,-4,-3
1525807144909793,-2,-5,-10,13,20,11,2,3
1525807144910794,0,1,1,-14,-7,8,4,-1
1525807144910794,0,2,3,4,4,-6,1,0
1525807144932827,-1,-3,0,5,-4,19,7,1
1525807144932827,-3,-4,-4,-10,4,1,-4,-5
1525807144933789,8,9,7,13,12,15,4,4
1525807144933789,2,4,3,-2,1,2,0,3
1525807144946827,-2,-1,-2,17,8,-14,0,-3
1525807144946827,1,0,-1,-30,-21,0,-16,-3
1525807144947764,-3,-2,0,16,17,11,-1,0
1525807144947764,-2,-2,-1,-2,-7,-2,2,1
1525807144969829,-5,-11,-9,-8,-2,-3,0,0
1525807144969829,5,8,11,10,2,2,9,3
1525807144970809,-7,-11,-9,-15,-9,4,-1,-2
1525807144970809,-1,-3,0,17,-1,-6,3,-4
1525807144992793,-2,-3,-2,-11,3,6,-9,-2
1525807144992793,-3,-5,-8,-7,-4,-1,1,-1
1525807144993793,2,1,4,5,2,14,-4,0
1525807144993793,-4,-6,3,2,-3,-6,8,-1
1525807145006794,0,1,0,14,8,3,-3,-1
1525807145006794,-1,0,-2,0,-1,-4,-2,-2
1525807145007761,0,2,0,7,2,13,1,1
1525807145007761,3,3,-3,-13,-3,-3,2,4
1525807145029796,2,4,2,-5,-4,-10,-2,2
1525807145029796,-1,-1,-2,-7,3,37,6,3
1525807145030795,-5,-4,1,12,-2,-18,-5,-4
1525807145030795,1,0,-1,-2,3,10,1,-1
1525807145052797,-2,0,-7,-21,-4,-17,-7,-3
1525807145052797,0,-6,-4,11,-3,-4,7,2
1525807145053777,-2,0,-1,0,-4,1,-6,-3
1525807145053777,1,-1,0,-1,-6,-22,-14,-1
1525807145066828,3,3,5,6,4,-3,15,4
1525807145066828,-3,1,-1,1,7,-2,-4,-3
1525807145067789,-1,0,0,-4,-7,-2,1,-3
1525807145067789,1,2,3,3,7,-6,-4,0
1525807145089794,-2,-1,2,0,-6,4,3,1
1525807145089794,1,1,1,0,-6,-18,0,0
1525807145090794,0,-2,-3,-4,-7,0,-2,-2
1525807145090794,0,-2,-2,-12,-2,22,0,1
1525807145112776,-1,2,1,13,9,5,2,2
1525807145112776,-1,-1,3,6,-4,4,1,0
1525807145113797,0,-3,0,5,-8,-9,3,1
1525807145113797,1,-3,-20,-47,-4,4,0,0
1525807145126793,1,-1,2,2,-5,-5,-3,-3
1525807145126793,-1,0,-1,0,-1,-11,-8,-4
1525807145134774,0,1,2,-1,1,-21,-1,1
1525807145134774,-1,0,5,13,5,8,9,1
1525807145149795,1,-1,4,10,2,10,-8,-2
1525807145149795,-2,-4,-7,-19,-4,-1,10,-1
1525807145150782,1,-1,-1,-7,1,2,-3,0
1525807145150782,-2,-2,2,14,4,2,-5,-3
1525807145172830,0,-2,-5,-3,2,8,0,0
1525807145172830,-1,-1,6,5,-4,-1,-9,-1
1525807145173815,-1,-1,-6,-2,7,-3,-9,-2
1525807145173815,-2,-1,-2,-2,1,4,6,0
1525807145186847,2,3,3,13,2,5,1,0
1525807145186847,-2,-3,-11,-25,-3,-2,0,-1
1525807145187815,1,-2,-6,-11,-1,5,10,1
1525807145187815,-1,0,2,-1,-11,-22,-4,0
1525807145209879,-4,-3,1,-1,2,-4,-16,-4
1525807145209879,-1,0,5,6,-2,-11,3,2
1525807145216882,1,6,0,12,14,8,-12,-3
1525807145216882,1,0,-2,-3,-2,8,9,-3
1525807145232846,-1,-1,-3,-5,-9,-18,12,13
1525807145232846,-1,1,6,13,1,-15,4,-1
1525807145233826,-8,-9,-2,-27,-25,-7,-15,-7
1525807145233826,8,11,4,30,29,-5,-2,6
1525807145246846,3,3,-5,-23,-3,21,6,-1
1525807145246846,-3,-3,0,7,2,-1,1,-3
1525807145254842,-1,-1,3,8,-3,-7,5,0
1525807145254842,-4,-7,-7,-23,-15,14,5,-2
1525807145269939,-8,-9,2,12,-7,-19,-15,-10
1525807145269939,15,20,3,4,25,25,7,10
1525807145270928,-2,-3,0,0,-2,6,12,1
1525807145270928,-1,-1,1,2,-2,7,-2,-1
1525807145292903,-2,-4,-1,0,-2,1,-6,-3
1525807145292903,-4,-8,-2,-4,-12,-4,-4,-4
1525807145293903,2,4,4,10,7,18,4,0
1525807145293903,-1,-2,1,5,4,-10,6,1
1525807145306903,1,1,-5,-10,0,-1,-2,0
1525807145306903,-2,-1,0,5,-6,4,-5,-2
1525807145314904,2,3,-4,-2,10,6,9,4
1525807145314904,-1,-2,-1,2,-2,3,-4,-1
1525807145329939,1,0,-3,-2,0,5,0,-3
1525807145329939,-1,-1,-2,-2,-4,-15,-4,-3
1525807145330918,-3,-3,0,3,-6,-15,-12,-2
1525807145330918,-1,0,-1,-12,-5,10,15,-4
1525807145352937,2,3,2,12,12,-9,-7,8
1525807145352937,-2,0,3,3,1,13,4,1
1525807145353909,-4,-3,-4,-8,-4,-16,0,-1
1525807145353909,0,0,0,4,1,-3,-9,-5
1525807145366902,0,0,0,-3,-3,-5,0,-2
1525807145366902,0,-3,-1,0,0,-1,0,-1
1525807145374939,-1,0,2,1,1,2,-6,-2
1525807145374939,-1,0,-3,2,-5,10,1,2
1525807145389903,1,0,-4,-4,3,18,2,0
1525807145389903,-1,-2,2,0,-4,0,-5,-1
1525807145390897,2,0,1,-3,-1,-4,2,-2
1525807145390897,-2,-4,-1,0,-3,-4,-6,-2
1525807145412938,0,1,0,-2,-4,-4,-2,-1
1525807145412938,-2,-4,-8,-1,3,-7,-1,-3
1525807145413910,0,-1,0,-1,-4,4,5,1
1525807145413910,1,2,-3,-1,7,-3,-1,5
1525807145426937,-3,-3,2,0,-3,13,5,-2
1525807145426937,-2,-1,1,2,7,-6,-19,-5
1525807145434884,-4,-4,-5,2,-7,-4,6,-1
1525807145434884,1,1,-1,-20,-11,-31,-11,2
1525807145449875,1,1,3,8,6,19,14,1
1525807145449875,-2,-1,0,5,1,16,2,0
1525807145450886,1,0,2,12,5,3,3,1
1525807145450886,-3,-1,4,-2,3,0,-13,-4
1525807145472903,-2,-2,-7,-16,-10,-17,-6,-1
1525807145472903,2,3,2,-13,-7,1,17,2
1525807145473904,0,-1,2,17,12,-7,-24,-5
1525807145473904,-2,-2,2,9,-6,-3,12,-1
1525807145486903,-1,-3,3,-1,-6,-4,-12,-5
1525807145486903,4,6,6,-9,-2,10,7,6
1525807145494903,-2,-5,-12,20,25,8,4,0
1525807145494903,0,0,0,-2,3,12,-6,-1
1525807145509941,1,-1,4,2,3,-11,-2,-2
1525807145509941,-2,-4,0,-7,-11,-10,-3,-3
1525807145510902,1,1,2,-18,-10,2,2,1
1525807145510902,0,0,3,30,5,-7,4,-1
1525807145532940,1,-1,-16,-58,-11,5,-1,2
1525807145532940,-7,-1,0,18,4,-14,-2,-5
1525807145533912,5,0,-1,-6,-8,4,0,3
1525807145533912,-1,0,3,1,-7,-10,-2,1
1525807145546973,-4,-5,3,-5,-13,4,-1,-4
1525807145546973,1,-1,-6,18,23,12,7,1
1525807145555015,0,-2,-2,-13,-6,-13,-3,-1
1525807145555015,-1,-1,-1,-1,-4,0,1,-1
1525807145569978,0,2,1,8,-1,0,2,1
1525807145569978,-1,-3,-4,-13,-10,4,9,-4
1525807145570975,-2,-1,2,3,-2,-12,-22,-4
1525807145570975,1,-2,-3,-8,-2,7,0,0
1525807145592980,-2,-3,-1,10,5,-2,2,-2
1525807145592980,-1,-2,-1,1,4,9,-4,1
1525807145593979,-1,3,2,-6,-4,2,16,3
1525807145593979,-2,-2,-5,-7,-8,-17,-10,-5
1525807145614979,2,2,3,20,15,5,-1,1
1525807145614979,1,0,5,-5,-4,3,1,1
1525807145615950,0,-1,-7,-7,-5,-6,0,0
1525807145615950,-2,-4,-8,-5,7,5,-1,-1
1525807145629978,-3,-2,-3,-7,-4,17,5,2
1525807145629978,0,-1,4,16,13,1,-2,1
1525807145629978,1,-1,0,-1,6,6,2,2
1525807145629978,-1,1,6,4,3,8,-2,-3
1525807145652979,0,-1,-4,-7,-9,-7,-5,-2
1525807145652979,-2,-3,-3,-8,-21,-51,-8,-1
1525807145653979,0,3,3,1,14,29,-5,0
1525807145653979,-2,-4,1,8,2,-14,8,0
1525807145674955,2,1,4,9,1,-7,1,1
1525807145674955,-1,-3,-7,-14,-7,7,-3,0
1525807145675948,-1,0,4,9,-7,-2,6,-1
1525807145675948,-1,-1,-2,-6,0,-12,-5,0
1525807145697946,0,1,3,7,-2,-4,1,-1
1525807145697946,1,0,-4,-5,2,1,-4,-1
1525807145699013,-1,-2,1,-4,-4,-1,3,1
1525807145699013,1,1,3,12,0,16,-6,-5
1525807145713093,1,0,-3,4,3,-7,16,1
1525807145713093,1,-1,1,-7,-3,17,-19,-2
1525807145714094,-3,-2,-1,-1,2,-19,-1,-4
1525807145714094,1,2,3,-3,-3,-1,-2,0
1525807145735060,0,2,1,0,1,8,0,1
1525807145735060,2,3,0,7,4,2,2,1
1525807145736027,4,4,-2,-8,-2,9,7,1
1525807145736027,0,-3,1,4,-3,-1,-5,0
1525807145750094,-3,-3,-4,-16,1,-9,-8,-1
1525807145750094,-2,-2,1,19,2,2,0,-2
1525807145750094,-3,-1,1,4,-6,-10,-7,-3
1525807145750094,0,0,-2,3,11,6,8,-2
1525807145773059,0,-4,0,1,-4,-1,-13,1
1525807145773059,-3,-3,1,3,7,6,15,0
1525807145774060,0,-1,-3,-11,-3,9,-7,0
1525807145774060,-1,0,-4,-8,-3,-5,3,-1
1525807145796031,0,-1,1,-1,0,-18,1,-1
1525807145796031,-1,-2,-1,-5,-5,-4,-7,-2
1525807145797028,-1,-2,-2,1,-1,-6,1,-1
1525807145797028,0,0,-1,-4,1,18,10,5
1525807145810027,0,0,0,4,6,9,-10,-5
1525807145810027,-1,-2,-2,-3,-13,-27,-10,-2
1525807145810027,0,0,3,3,-4,-10,-2,-2
1525807145810027,-2,-1,-5,-6,-6,-12,-4,0
1525807145833094,1,0,-1,6,5,-2,5,1
1525807145833094,-1,0,2,0,4,13,0,1
1525807145834061,-4,-3,1,2,-4,7,-1,-1
1525807145834061,1,-2,-4,-9,-7,-32,-6,0
1525807145863094,-2,-1,1,2,1,29,3,-2
1525807145863094,0,-1,1,1,-10,-19,-6,1
1525807145864057,2,2,7,17,9,11,13,3
1525807145864057,-2,-2,-7,-12,-4,8,8,2
1525807145870095,-2,-2,-9,1,-5,-11,-6,-4
1525807145870095,1,-2,-1,-10,-2,6,-11,-2
1525807145870095,1,-1,1,-8,-6,14,4,-1
1525807145870095,0,-1,0,8,8,14,-4,0
1525807145902030,0,1,2,-4,-5,-3,7,1
1525807145902030,-1,-1,-2,-1,0,11,6,-1
1525807145903060,0,0,-6,-11,-11,-44,-8,-3
1525807145903060,1,1,2,0,4,37,-2,2
1525807145915094,1,1,3,4,-1,-35,-5,0
1525807145915094,-1,-1,-1,3,-1,-14,3,1
1525807145917028,-2,-2,-3,-5,4,10,-2,-2
1525807145917028,-1,-1,2,-7,-8,-13,4,0
1525807145929093,-3,-2,0,7,7,10,-15,-3
1525807145929093,1,0,0,5,3,2,3,0
1525807145938029,-1,-1,-7,-15,-3,-4,-1,-1
1525807145938029,0,0,3,0,-8,-9,-3,-1
1525807145953060,1,0,-1,-1,7,9,7,1
1525807145953060,-3,-2,2,3,-4,3,-3,-4
1525807145954066,3,3,-7,-18,-5,10,2,4
1525807145954066,-2,-3,-4,-5,-3,-9,7,0
1525807145975095,-2,-3,5,19,0,-14,-7,-4
1525807145975095,-2,-2,-6,-10,-2,-1,3,0
1525807145977046,-1,-2,8,15,-17,-21,-2,-3
1525807145977046,3,0,-7,-14,15,6,-1,1
1525807145989060,0,-2,0,8,-3,2,-3,-2
1525807145989060,-4,-4,-2,-6,-1,15,9,1
1525807145998030,-3,-2,2,8,4,2,-8,-6
1525807145998030,2,1,3,6,-6,1,-5,3
1525807146013061,-2,-1,2,-7,-12,-21,-1,0
1525807146013061,0,-5,-8,-22,0,0,2,-3
1525807146014030,0,2,3,7,12,10,1,1
1525807146014030,-4,-3,0,4,-3,11,3,-5
1525807146035074,0,0,-7,-15,-2,7,9,7
1525807146035074,-1,3,3,11,3,-5,-16,-7
1525807146037051,1,0,1,2,7,7,10,4
1525807146037051,-3,-3,-3,-2,-4,-10,-7,-3
1525807146049042,0,-1,-3,-2,2,12,0,-1
1525807146049042,1,1,1,1,5,16,5,3
1525807146058046,-1,-4,-3,-2,-3,3,-3,-1
1525807146058046,-2,-1,2,4,4,-13,-2,-2
1525807146073060,-2,-3,-3,-3,-12,-7,0,-2
1525807146073060,2,3,11,-5,-6,8,3,2
1525807146074061,3,-1,-9,14,33,10,1,-1
1525807146074061,-1,-2,1,13,-6,-9,-1,3
1525807146095059,-2,2,0,0,0,-3,4,-2
1525807146095059,-1,-2,-3,-9,-6,-12,-8,1
1525807146097038,-1,0,8,17,1,8,4,-1
1525807146097038,0,0,-3,-14,-5,-8,7,0
1525807146109042,-2,-1,-5,-5,-3,7,-13,-4
1525807146109042,1,0,-1,4,4,1,6,1
1525807146118030,-2,-1,0,-10,-8,-9,-8,-1
1525807146118030,-2,-1,-4,1,2,9,2,-2
1525807146133094,-2,-1,0,-5,-2,2,6,0
1525807146133094,2,-1,-6,-2,6,17,5,2
1525807146134094,-3,-2,-3,-10,-12,-6,3,1
1525807146134094,2,0,2,3,6,1,0,0
1525807146155059,0,0,2,6,1,6,5,1
1525807146155059,-3,-2,0,-10,-10,-11,1,-2
1525807146157039,0,-1,0,22,14,3,1,2
1525807146157039,1,-4,-13,-17,-1,-1,-5,1
1525807146178077,2,2,10,11,2,1,6,2
1525807146178077,-2,-5,-10,-1,8,-12,-12,-6
1525807146179077,-3,1,1,-22,-17,-7,-14,-6
1525807146179077,-2,-2,5,5,-4,-1,4,0
1525807146193060,3,1,-8,18,25,3,-6,-1
1525807146193060,1,4,7,12,1,8,3,1
1525807146194061,-2,-4,-2,-4,-8,-1,3,0
1525807146194061,0,2,4,-2,-2,-8,-1,-1
1525807146215092,-2,-5,-3,-4,11,34,-1,-2
1525807146215092,0,2,4,20,0,-6,1,-1
1525807146217058,1,2,-9,-36,-3,-1,-3,2
1525807146217058,-1,-1,7,15,7,11,0,-2
1525807146229060,2,1,-3,-6,-5,-2,6,3
1525807146229060,-1,-1,-1,4,0,10,0,-1
1525807146238050,-1,-3,-1,8,-6,-23,-14,-4
1525807146238050,0,3,1,-1,-5,0,2,-1
1525807146253028,0,0,-3,-14,-4,-7,-17,-6
1525807146253028,-3,-3,-4,-3,1,-5,6,0
1525807146254028,-1,-2,-2,-9,-10,-7,6,3
1525807146254028,-2,-2,-2,0,0,-2,-5,-2
1525807146275093,-1,0,3,3,-3,-12,-1,0
1525807146275093,7,2,2,-3,6,9,1,3
1525807146277050,-3,-2,-1,4,2,6,2,-2
1525807146277050,-1,-1,0,0,-2,2,0,1
1525807146289060,-2,-2,-2,-2,-4,-12,0,-1
1525807146289060,-1,-2,-3,-1,-5,-18,-4,-1
1525807146298031,-2,0,1,5,8,31,5,0
1525807146298031,0,-1,-2,0,-3,-3,-9,-1
1525807146313059,-2,0,1,0,3,1,8,0
1525807146313059,-2,-2,-4,-11,-11,-25,-11,-3
1525807146314039,2,1,3,5,-5,-4,-1,0
1525807146314039,1,-2,-7,-16,-12,-25,7,0
1525807146335059,-2,-3,-5,-10,1,8,-2,-3
1525807146335059,0,3,4,-2,-3,-41,-8,-1
1525807146337038,0,-3,-5,7,-3,-2,-12,-2
1525807146337038,-4,-3,0,-6,-6,12,5,-2
1525807146349094,0,0,-1,6,1,-2,5,2
1525807146349094,-1,-2,0,-1,-2,11,1,0
1525807146358154,1,0,-2,0,-2,-21,-7,-2
1525807146358154,-2,-1,-1,2,5,8,-8,-4
1525807146373274,-1,2,5,-5,-8,-18,-4,1
1525807146373274,-3,1,3,4,3,18,-3,-1
1525807146374215,-2,-2,-1,2,-1,-14,6,0
1525807146374215,0,1,2,14,16,35,4,2
1525807146395273,2,0,1,-2,-5,-9,2,0
1525807146395273,0,-1,-1,2,1,11,2,0
1525807146397222,1,1,8,10,-6,-15,-6,3
1525807146397222,1,-1,-8,-13,9,-3,1,0
1525807146409220,-1,0,2,9,2,2,-12,-4
1525807146409220,-1,-1,-1,-12,-9,-17,-4,-1
1525807146418207,1,2,-6,-6,6,8,20,4
1525807146418207,1,-2,0,18,1,-10,-13,0
1525807146432272,-1,-2,-4,-12,-6,-4,-2,-2
1525807146432272,0,1,6,13,7,4,7,2
1525807146440205,-3,-2,-5,1,5,12,-5,-1
1525807146440205,0,0,-1,7,2,8,-1,1
1525807146455221,1,-2,-6,-39,-7,8,2,1
1525807146455221,-2,-2,-1,-1,-4,-11,4,-2
1525807146457205,4,5,7,6,1,4,0,1
1525807146457205,-1,-3,-4,-3,-2,1,1,-2
1525807146469273,-1,-2,-4,5,0,1,-3,-1
1525807146469273,-2,-2,-4,1,-6,5,-2,-1
1525807146478224,-1,-4,1,-7,0,-2,-2,-1
1525807146478224,-3,-1,-1,-11,-8,-12,-6,-3
1525807146493220,2,4,3,9,4,8,7,3
1525807146493220,1,-2,-6,-2,0,-10,-9,0
1525807146494206,-2,-1,-2,-4,0,12,5,-3
1525807146494206,-1,0,0,-5,-10,-24,1,-1
1525807146515237,-2,-5,-5,4,4,15,3,1
1525807146515237,0,-1,-2,-7,-2,5,1,-2
1525807146517207,0,0,1,0,2,11,-5,0
1525807146517207,-1,-4,-2,-5,-2,-12,0,-2
1525807146529209,-1,-1,2,2,-4,-14,-3,0
1525807146529209,1,0,-5,-2,-4,13,4,3
1525807146538213,-2,0,3,2,3,13,3,1
1525807146538213,-3,0,3,4,6,12,-1,-2
1525807146553241,0,0,1,6,1,-9,4,1
1525807146553241,0,0,1,0,2,1,-6,-2
1525807146554205,-1,-2,-5,-9,-4,-13,0,0
1525807146554205,0,0,0,-1,-2,0,-3,-1
1525807146575238,-2,-2,-1,-6,-9,20,4,-2
1525807146575238,-2,-2,-2,0,6,6,6,0
1525807146577206,0,-3,-2,-2,-6,-10,-8,-1
1525807146577206,2,2,2,4,4,-2,-2,0
1525807146605221,-1,-2,0,3,-3,-12,-8,-2
1525807146605221,1,0,0,2,-1,6,6,1
1525807146607231,1,0,-3,0,0,-10,6,-1
1525807146607231,-1,-1,0,-1,-2,14,1,1
1525807146613221,-1,-1,-3,1,-4,-29,-13,-2
1525807146613221,2,4,7,7,8,27,13,5
1525807146614207,-5,-3,-1,0,3,14,-11,-7
1525807146614207,-3,-4,-1,-8,-8,-13,5,-3
1525807146635254,0,-1,-2,5,2,2,1,2
1525807146635254,-1,-5,-10,-8,-1,-16,-10,-3
1525807146637206,1,-1,1,-2,-2,-2,-1,0
1525807146637206,0,1,-1,-4,-5,-6,-5,1
1525807146658273,-3,-1,0,-3,-1,2,3,-3
1525807146658273,0,-1,2,0,-1,-8,0,1
1525807146659234,-4,-3,-4,17,3,4,0,0
1525807146659234,5,9,7,-19,0,10,7,5
1525807146673221,0,-1,-3,-4,1,4,4,1
1525807146673221,-2,-7,-16,8,11,-9,-9,-5
1525807146674206,-1,-1,0,-4,0,-5,2,1
1525807146674206,-1,-1,2,7,1,-3,0,0
1525807146695210,1,1,3,3,-1,3,-2,1
1525807146695210,-2,0,1,-12,-10,-4,-5,-4
1525807146697208,-2,-2,-4,-17,1,-3,2,1
1525807146697208,1,0,-2,10,16,12,5,1
1525807146718206,-3,-2,3,28,-1,-7,1,-1
1525807146718206,-3,-2,-1,-21,-11,-5,-2,-1
1525807146720206,-2,-1,3,17,-1,12,12,1
1525807146720206,2,2,-13,-7,15,4,-5,2
1525807146732221,1,0,-2,-3,3,6,5,2
1525807146732221,-1,2,8,7,-2,-6,1,2
1525807146739243,-4,-2,-4,-3,-1,0,3,-1
1525807146739243,-3,-4,5,12,-6,-1,-13,-6
1525807146755238,-1,-1,-7,-15,-1,-2,1,-1
1525807146755238,1,0,2,1,1,8,0,1
1525807146757238,1,-1,1,-11,-6,-3,-2,-2
1525807146757238,-2,-2,2,9,-3,-3,2,0
1525807146778274,-1,-2,-5,-15,1,8,-5,-1
1525807146778274,1,3,2,4,1,4,0,1
1525807146779216,1,0,-3,0,1,-3,1,1
1525807146779216,0,0,1,1,-1,-16,-2,1
1525807146792228,-1,0,3,4,-1,-4,0,-4
1525807146792228,1,0,2,0,5,35,6,2
1525807146800217,1,3,4,-3,-7,-18,-4,0
1525807146800217,-2,-4,-6,-1,-5,-13,-8,-4
1525807146815238,1,-1,1,-7,0,26,3,1
1525807146815238,-1,-1,-2,4,1,-7,-5,-2
1525807146817239,0,0,-1,-8,4,12,-2,0
1525807146817239,-2,0,2,1,-3,-4,-4,-1
1525807146838273,-2,-3,-6,-12,-10,-6,0,-2
1525807146838273,2,0,3,4,7,1,4,1
1525807146839232,0,1,1,3,1,-13,-5,-2
1525807146839232,-1,-3,-1,-4,-12,-5,4,-1
1525807146852239,-1,-2,-3,7,-1,-10,-8,-1
1525807146852239,0,1,1,1,5,35,1,0
1525807146859222,0,-1,-3,-11,-8,-10,7,-1
1525807146859222,-2,-4,-8,-2,1,11,3,-2
1525807146874239,-1,2,7,3,1,4,-5,-1
1525807146874239,0,-3,-4,-4,-13,-13,-4,-2
1525807146883217,0,-2,-6,-3,-1,-16,-4,0
1525807146883217,-1,-2,0,0,-6,-36,-6,-2
1525807146898269,2,0,1,6,-4,4,9,3
1525807146898269,-6,-5,-12,-31,-6,-24,-15,-6
1525807146899230,1,3,6,13,15,27,-3,2
1525807146899230,0,0,2,6,5,20,15,2
1525807146912239,-2,0,-4,-5,0,14,0,0
1525807146912239,-2,1,2,4,-8,-36,-7,-2
1525807146926222,2,-1,-1,0,-7,-27,-4,-1
1525807146926222,1,-2,0,-7,-1,23,11,2
1525807146935240,-2,1,3,5,4,-3,1,0
1525807146935240,-3,-3,-10,-11,-8,0,14,3
1525807146937217,-3,-2,-1,2,3,12,-1,-1
1525807146937217,0,2,7,15,-1,7,0,2
1525807146958282,0,-3,-7,-33,-14,-16,0,-2
1525807146958282,1,0,4,17,11,3,-1,1
1525807146959255,-2,-2,0,-3,-6,-10,-9,-3
1525807146959255,-2,2,-2,-1,4,3,3,-1
1525807146972358,0,-1,-1,3,-1,-1,-8,-2
1525807146972358,0,0,1,2,-4,-1,-1,0
1525807146979359,2,5,-1,0,-2,13,17,4
1525807146979359,1,-2,3,1,-2,2,-2,1
1525807146995342,-1,-4,-2,12,10,8,2,1
1525807146995342,-3,0,-3,-2,-1,9,-2,-3
1525807146997342,-2,-2,3,-1,-4,-5,-4,-1
1525807146997342,-1,1,3,-1,-5,-12,-10,-3
1525807147018327,10,13,1,-10,-3,-9,8,6
1525807147018327,-5,-9,8,21,16,23,7,-1
1525807147019326,-4,-4,-19,-14,1,-4,-16,-2
1525807147019326,2,4,4,0,5,0,1,1
1525807147032360,-3,-5,-2,-4,1,0,-7,-4
1525807147032360,-1,3,4,9,-1,-11,2,1
1525807147039359,-2,-4,-1,3,-5,2,-2,-1
1525807147039359,-3,-5,-7,-20,0,10,-3,-1
1525807147055433,-3,-1,-3,6,0,-10,-3,0
1525807147055433,1,2,0,-4,-5,-13,-3,-2
1525807147057415,1,-1,4,7,3,1,6,-2
1525807147057415,1,-1,-2,-1,-5,-8,-8,-1
1525807147077433,-1,-2,1,3,0,3,1,1
1525807147077433,4,-1,-4,-7,2,-13,-6,2
1525807147079407,1,1,-1,-3,0,8,3,-1
1525807147079407,3,2,2,8,15,16,7,1
1525807147091436,-5,-6,-3,0,-4,-15,-1,-1
1525807147091436,-2,0,0,-2,-4,-12,-14,-2
1525807147100420,0,0,5,2,-3,-12,3,2
1525807147100420,-2,-2,-4,-6,-3,7,-5,-2
1525807147115431,-2,-6,-6,2,1,0,5,-3
1525807147115431,2,2,0,-4,-8,-14,0,1
1525807147117415,0,-2,3,0,-6,-10,-1,-2
1525807147117415,-2,-1,2,0,-5,-11,-4,-2
1525807147137422,0,-1,-4,-4,6,41,-6,-3
1525807147137422,2,0,3,8,4,-21,0,3
1525807147139400,-1,-1,-2,-4,1,18,7,2
1525807147139400,-1,0,-2,2,2,-10,-1,1
1525807147151426,1,1,5,1,1,-2,-1,-1
1525807147151426,-1,-1,-5,-4,-5,13,7,0
1525807147160419,-8,-1,-2,5,9,9,-12,-9
1525807147160419,0,-2,1,6,-1,18,6,3
1525807147175431,1,3,7,4,-10,-26,-4,1
1525807147175431,-5,-7,-22,-32,-3,11,5,-2
1525807147177436,5,2,3,0,-4,-26,1,3
1525807147177436,-2,-2,-4,-11,-16,-22,-5,-6
1525807147197403,-3,-2,-7,13,16,-2,-2,0
1525807147197403,0,0,-1,2,2,15,-2,1
1525807147199401,-1,0,1,2,0,28,10,3
1525807147199401,0,-1,-5,-15,-2,4,-1,1
1525807147211431,1,1,3,2,-5,-34,-6,1
1525807147211431,1,0,3,1,-8,-45,-14,-4
1525807147220473,2,1,0,-6,4,37,11,5
1525807147220473,-2,-1,1,13,8,-17,-18,-5
1525807147235484,2,0,2,-4,4,32,13,5
1525807147235484,-3,-2,0,9,11,1,-4,-3
1525807147237474,1,0,1,-2,-7,-16,-2,-3
1525807147237474,0,-2,-2,10,6,13,7,0
1525807147257488,2,1,13,8,-11,-17,-10,-1
1525807147257488,-5,-7,-25,-14,-1,17,8,1
1525807147259476,-3,-6,-10,-32,-6,-23,-6,-1
1525807147259476,3,2,1,-2,3,-3,-5,2
1525807147271540,-5,-4,-1,5,1,16,-14,-8
1525807147271540,2,3,13,10,-4,2,3,-1
1525807147280491,-3,-1,-2,3,-7,2,-3,-3
1525807147280491,1,-2,0,1,3,-6,2,2
1525807147295504,-2,-4,-5,24,9,6,6,0
1525807147295504,0,1,-3,-39,-11,2,0,0
1525807147296482,-1,0,5,6,4,5,-1,1
1525807147296482,-4,-2,0,-13,-10,-2,6,-1
1525807147317505,3,3,-2,0,8,7,6,3
1525807147317505,0,2,11,26,14,8,-2,-2
1525807147319476,2,0,0,27,-5,-8,-5,0
1525807147319476,-6,-10,-31,-59,4,-2,3,-4
1525807147331505,-6,-6,-2,-20,-15,-23,-5,-4
1525807147331505,-4,-5,3,10,-6,4,1,-2
1525807147340473,2,6,10,-10,-3,4,0,1
1525807147340473,2,3,5,53,12,-9,-5,-1
1525807147355539,-3,-8,-22,-33,-5,3,1,-2
1525807147355539,4,3,5,-9,-1,12,0,2
1525807147356507,-3,-5,3,12,3,12,13,2
1525807147356507,3,5,5,-2,-9,14,1,3
1525807147377539,-2,1,4,2,0,-2,1,-2
1525807147377539,-1,-3,0,10,-5,-17,-11,-2
1525807147379493,0,0,-4,-6,-1,-14,-7,-3
1525807147379493,-2,0,3,0,-1,10,-2,-1
1525807147391505,4,1,0,2,1,-9,13,4
1525807147391505,0,0,0,0,-3,-2,-7,-2
1525807147400490,2,1,-2,1,16,39,2,2
1525807147400490,-1,-4,-5,-11,-11,-48,-7,-2
1525807147415473,-4,1,2,-3,-8,-7,-2,-4
1525807147415473,1,-1,-1,-6,-2,25,9,4
1525807147421509,-5,-2,-2,14,12,-19,-13,-5
1525807147421509,1,0,1,-1,-12,3,9,-1
1525807147438540,2,0,2,6,5,16,14,4
1525807147438540,4,5,6,-15,-6,16,11,4
1525807147440475,-5,-6,-10,13,8,-38,-15,-8
1525807147440475,1,1,3,5,8,47,6,2
1525807147451505,-5,-2,-5,-3,-7,-26,-9,-4
1525807147451505,-1,-1,-1,-2,3,-5,2,1
1525807147460472,7,1,5,1,-10,-10,-1,6
1525807147460472,-16,-4,-2,-4,6,-10,-6,-9
1525807147475539,2,1,-1,-10,-7,11,3,1
1525807147475539,-3,0,1,11,-2,-1,5,0
1525807147477476,3,1,0,-6,-1,4,4,3
1525807147477476,3,0,1,-4,-10,-15,0,0
1525807147497505,-2,-3,-1,16,13,-2,-20,-3
1525807147497505,3,3,2,3,0,26,10,4
1525807147499476,-1,-1,-5,-10,-3,17,12,1
1525807147499476,1,0,1,-11,-19,-7,-11,-2
1525807147520560,-1,0,4,16,17,11,3,-3
1525807147520560,1,0,1,6,3,-12,-15,-2
1525807147521559,-2,-1,-3,-2,5,29,25,1
1525807147521559,3,2,7,10,4,2,-27,0
1525807147535541,1,-1,-5,-33,-19,-6,1,-2
1525807147535541,-1,0,3,32,12,-11,2,0
1525807147536561,-2,-2,2,-18,-9,2,-8,-3
1525807147536561,-1,-4,-7,-1,-2,-20,7,1
1525807147557558,0,1,3,4,10,4,-10,-2
1525807147557558,0,-1,2,-3,-8,-15,-6,-1
1525807147559536,-6,-7,-21,-8,-1,-10,-9,-6
1525807147559536,1,1,10,17,7,-1,4,2
1525807147580545,-2,-5,-12,-12,-3,-6,-4,0
1525807147580545,4,8,6,-5,0,5,6,3
1525807147581577,-1,-3,0,9,5,-16,-9,0
1525807147581577,0,-1,0,-2,4,9,10,0
1525807147595559,1,1,3,13,-6,-8,-10,3
1525807147595559,-7,-5,-6,-18,-3,-8,-6,-6
1525807147596558,3,8,10,-2,-4,-2,-5,2
1525807147596558,-3,-7,-8,-2,1,3,7,-3
1525807147617558,4,3,-7,-12,4,9,9,1
1525807147617558,-3,-4,-1,6,0,1,-4,-1
1525807147619535,1,0,2,6,-1,-7,2,-2
1525807147619535,-2,-3,-5,-10,-10,-1,1,-1
1525807147640541,1,8,13,15,3,6,11,4
1525807147640541,2,-1,-8,-17,0,7,-1,1
1525807147642532,-8,-11,-2,10,-3,-17,-10,-6
1525807147642532,13,21,7,-12,14,24,12,11
1525807147654559,-2,-5,3,-3,-13,-9,0,-1
1525807147654559,-2,-2,-3,7,3,-1,0,0
1525807147661635,-3,-3,-2,-11,-10,-5,-2,-1
1525807147661635,-6,-6,-4,14,-1,-17,4,-1
1525807147677664,1,0,3,-2,2,16,-10,1
1525807147677664,-1,0,-2,-7,1,4,4,-3
1525807147679631,0,0,1,4,-6,-26,-6,-2
1525807147679631,0,0,1,4,8,25,4,1
1525807147700614,0,1,-3,-2,-1,-1,3,-1
1525807147700614,-4,-6,-2,-4,-12,-10,-3,-4
1525807147701599,0,1,-4,-3,6,12,8,1
1525807147701599,-1,0,-2,-7,-9,-8,-16,0
1525807147714665,-3,-1,2,7,-1,0,0,-2
1525807147714665,1,-1,2,3,-6,-24,0,-1
1525807147721627,6,9,8,2,2,1,3,4
1525807147721627,-4,-4,-4,-4,2,4,-2,-2
1525807147737612,-4,-4,-1,-1,-7,-12,-6,-2
1525807147737612,-3,-1,-5,-1,-4,-4,0,1
1525807147739598,3,-1,-3,-6,-3,27,2,1
1525807147739598,3,2,7,14,14,-7,-10,0
1525807147760609,-1,-1,-3,0,0,-2,10,0
1525807147760609,0,-1,-1,-2,0,-3,-3,0
1525807147762631,1,1,2,-5,-3,-17,-8,0
1525807147762631,-3,-4,-2,-5,-13,8,6,-4
1525807147774599,1,2,-2,-7,3,-16,-3,1
1525807147774599,-3,-1,0,15,-2,8,3,-4
1525807147781680,-2,-3,-4,-22,5,17,4,0
1525807147781680,0,-2,1,0,-7,-13,-7,-1
1525807147797679,-1,-1,-4,-2,4,5,19,4
1525807147797679,-2,-2,2,3,2,2,3,2
1525807147799664,0,-1,1,21,5,-2,-9,-1
1525807147799664,-2,0,-2,-6,-2,18,1,-4
1525807147820753,-3,-3,-2,-10,-13,-11,1,-2
1525807147820753,1,2,2,-1,10,8,-2,1
1525807147821723,0,0,-5,-11,-7,-8,2,0
1525807147821723,1,-4,-4,-10,-4,-8,-2,0
1525807147834755,-1,-1,6,9,-1,2,-8,-3
1525807147834755,-1,-1,-4,2,13,22,4,1
1525807147841753,-1,0,0,7,2,6,8,1
1525807147841753,-3,-2,1,5,-4,-7,-16,-6
1525807147857788,0,0,3,-35,-20,-4,-5,-3
1525807147857788,0,0,-4,14,11,-13,-5,-2
1525807147859736,1,-2,-6,-19,6,2,10,2
1525807147859736,1,0,3,37,15,10,-1,1
1525807147880743,-2,0,6,-2,-10,-5,-4,-1
1525807147880743,5,6,7,3,2,-2,1,1
1525807147881733,-1,0,3,5,-4,-13,-7,0
1525807147881733,0,0,5,-7,-6,-6,6,0
1525807147894789,1,2,2,16,7,3,-11,-2
1525807147894789,-1,-2,-4,-11,-14,-10,14,0
1525807147901864,-2,-5,-5,24,11,4,-1,0
1525807147901864,3,2,-8,-31,-2,-4,0,1
1525807147917836,3,3,4,27,18,11,-2,2
1525807147917836,-4,-7,-9,-25,-17,11,3,-1
1525807147919809,-8,-10,-2,9,-8,-16,-16,-7
1525807147919809,6,11,8,1,11,10,13,6
1525807147940814,10,9,2,-2,6,20,9,3
1525807147940814,0,0,-2,-8,0,1,2,1
1525807147942798,0,-1,3,-10,1,44,-9,-2
1525807147942798,-7,-10,-3,5,-15,-25,0,-4
1525807147954830,-3,-6,-12,1,7,-2,-7,-4
1525807147954830,2,3,5,15,14,-3,-1,-1
1525807147961864,0,2,2,0,-5,3,-2,-1
1525807147961864,-1,-1,-4,-3,-5,-21,0,0
1525807147977829,-1,-1,-1,2,-4,1,4,0
1525807147977829,-3,-4,-3,-9,1,-2,-9,-2
1525807147979830,0,2,-3,-10,-10,-10,1,-1
1525807147979830,2,0,-2,-1,-1,-1,-2,-1
1525807148000820,-3,-5,-3,11,10,4,3,-3
1525807148000820,0,-3,-3,0,-12,-4,-11,-2
1525807148001801,4,4,4,-6,4,9,1,3
1525807148001801,-3,-4,-4,-2,2,31,15,0
1525807148013799,-2,0,1,-1,5,-2,-23,-3
1525807148013799,0,0,-1,-2,3,-9,-1,0
1525807148022799,-1,1,-1,-1,-5,-8,2,0
1525807148022799,0,-2,-3,-4,2,-4,6,2
1525807148037813,-5,-4,-4,-7,-6,6,2,-1
1525807148037813,-1,1,2,0,-2,-7,-10,-1
1525807148039797,-1,-1,-2,6,1,-13,3,0
1525807148039797,-2,-3,-1,0,-8,-3,-5,-4
1525807148060809,-2,-2,-5,-14,-4,0,-1,2
1525807148060809,-2,-3,-1,1,2,14,11,-1
1525807148061803,0,1,-2,-16,-14,-19,0,-2
1525807148061803,-3,-3,-7,15,16,34,1,-1
1525807148073832,-2,-2,-4,-10,-9,-27,-5,-2
1525807148073832,0,1,1,-1,2,-3,-3,-1
1525807148082802,1,1,2,-6,-1,11,3,2
1525807148082802,-2,-2,-1,19,6,2,-10,-3
1525807148097830,2,-1,-3,-12,-8,-19,11,1
1525807148097830,-2,0,-3,1,1,12,-7,-3
1525807148099797,-1,0,1,-2,1,-3,3,-3
1525807148099797,1,-2,-5,1,0,-7,-4,1
1525807148120811,-2,-3,-3,-10,-9,-3,-4,-3
1525807148120811,1,1,2,6,4,-5,-1,0
1525807148121808,-2,-4,-8,13,7,4,-2,0
1525807148121808,3,4,-2,-29,-3,-12,0,2
1525807148133813,-1,-3,-2,3,-2,4,2,-1
1525807148133813,-1,-4,0,-16,-14,-10,0,-2
1525807148142808,-1,-3,1,9,1,2,1,0
1525807148142808,-3,-2,-4,5,-2,-7,-10,-5
1525807148164829,3,4,3,8,4,-10,0,0
1525807148164829,-1,1,3,-4,-9,-7,4,0
1525807148166800,-2,-5,-9,-14,-5,-4,8,2
1525807148166800,-3,-2,3,-6,-6,-4,-11,0
1525807148179860,1,4,4,35,11,12,-1,0
1525807148179860,-1,-3,-4,-21,-1,-2,-4,0
1525807148187803,0,0,3,-8,-10,1,0,0
1525807148187803,-2,-2,-2,5,2,-18,4,0
1525807148193802,-1,0,-6,-19,-2,17,0,0
1525807148193802,-1,-1,-1,4,-7,3,-14,-2
1525807148202801,3,2,3,0,1,-8,-4,-2
1525807148202801,0,1,5,4,0,1,-6,-2
1525807148217840,0,-2,1,5,4,-1,2,3
1525807148217840,1,-1,-3,0,1,-12,12,0
1525807148219840,1,1,2,-1,13,59,5,2
1525807148219840,1,0,3,2,1,15,5,-2
1525807148240823,-3,-1,-2,-4,-8,-30,-2,-2
1525807148240823,0,0,-4,-4,1,6,-1,1
1525807148241832,1,1,2,13,4,-20,-3,-1
1525807148241832,1,1,1,-4,-4,11,3,-2
1525807148253812,-1,-1,3,-1,-7,1,0,-2
1525807148253812,0,-3,-8,-6,1,-3,-4,0
1525807148268817,-1,0,3,2,3,-2,-5,-1
1525807148268817,-1,0,-2,1,0,13,2,1
1525807148277894,-1,0,7,10,-9,-27,-3,-2
1525807148277894,-2,-4,-17,-22,-12,-12,2,1
1525807148279870,0,0,1,4,11,4,-6,-3
1525807148279870,0,-2,1,-5,1,-5,16,4
1525807148299893,-2,0,4,14,4,-5,-19,-5
1525807148299893,4,4,5,12,2,7,6,2
1525807148301888,-1,-3,-9,-13,-10,6,1,1
1525807148301888,-3,-2,0,4,4,-5,-4,-3
1525807148313879,1,-1,-4,-8,7,6,5,1
1525807148313879,0,0,3,8,2,8,0,-1
1525807148322875,-1,-1,-5,-10,-4,-15,-11,-3
1525807148322875,1,0,3,1,-9,-6,1,1
1525807148337882,-1,-2,-1,-5,1,3,2,-1
1525807148337882,-1,-2,-1,9,7,5,-1,-1
1525807148339884,0,1,5,7,-6,-21,-3,-2
1525807148339884,-2,1,-1,1,-7,-18,-5,0
1525807148361878,-2,-4,-3,-9,0,17,0,-3
1525807148361878,0,1,0,-17,-10,-20,2,2
1525807148362867,-1,1,2,10,0,-18,-7,0
1525807148362867,0,0,-1,-8,-2,-4,-4,-1
1525807148373878,0,-2,-2,1,-3,17,4,0
1525807148373878,-1,-2,-3,3,7,2,-1,0
1525807148382876,-4,-3,0,-9,-11,-17,-1,-3
1525807148382876,1,5,2,-1,-2,-6,-3,1
1525807148397883,0,1,-6,-3,4,6,-5,3
1525807148397883,-2,0,9,17,8,23,1,-3
1525807148399884,2,4,7,8,4,5,7,0
1525807148399884,-4,-4,-2,17,4,-3,0,-3
1525807148419880,-3,-4,-1,-7,-3,-6,3,-1
1525807148419880,8,11,1,7,12,17,9,8
1525807148421891,-1,0,-3,-9,-6,7,-2,1
1525807148421891,1,-1,6,-9,-5,2,1,-2
1525807148433901,-3,-4,-7,-5,6,-4,2,-3
1525807148433901,-5,-5,0,3,-10,-15,-7,-6
1525807148442884,-3,-3,0,-3,-2,-11,-2,-2
1525807148442884,0,1,6,11,5,9,0,1
1525807148457934,7,7,-1,2,4,1,-1,3
1525807148457934,-2,-3,2,-7,-5,2,6,-1
1525807148459927,1,-1,-4,-2,1,6,-3,2
1525807148459927,-4,-6,-1,-3,8,22,-8,-6
1525807148480885,0,-1,2,2,-9,-9,3,0
1525807148480885,-3,-2,0,4,-7,7,-12,-5
1525807148481879,0,-2,-3,7,3,-14,10,0
1525807148481879,-1,-1,-9,-21,-2,-8,0,-1
1525807148502883,0,-1,1,-5,0,10,-1,0
1525807148502883,0,-2,-1,6,2,16,1,-2
1525807148508882,-1,-2,0,1,-11,-15,-4,-3
1525807148508882,1,1,-1,1,4,-9,-1,2
1525807148517934,1,0,-1,-1,0,-9,4,0
1525807148517934,-2,-2,1,1,-9,-27,-13,-1
1525807148519917,-1,0,-4,-6,8,31,1,1
1525807148519917,-1,0,-6,-5,-5,5,5,1
1525807148539879,-3,-2,-1,0,-2,-2,-3,-2
1525807148539879,0,-1,-1,-1,5,-1,10,3
1525807148546879,2,4,3,1,10,33,7,-1
1525807148546879,-2,-2,-7,-2,-2,-8,-15,-4
1525807148562903,-1,-2,-2,-2,-2,0,5,0
1525807148562903,1,-1,0,0,-3,-4,0,1
1525807148564869,1,-1,-3,-2,0,-16,-4,-1
1525807148564869,0,0,1,2,-3,-11,2,-2
1525807148576885,-1,-1,3,4,1,4,0,-1
1525807148576885,-1,1,1,-1,-1,0,0,-3
1525807148583899,0,-2,5,9,0,-15,9,2
1525807148583899,-3,-7,-15,-19,9,12,-2,-1
1525807148599899,0,0,0,7,-1,-6,-9,-3
1525807148599899,-2,-1,-2,-3,0,-9,-2,-1
1525807148601891,-1,-2,-4,-19,-5,21,5,2
1525807148601891,1,1,5,3,-6,6,10,0
1525807148622900,0,-1,-2,5,1,-6,-5,2
1525807148622900,-3,0,-2,15,3,5,-3,-2
1525807148624868,-3,-2,-5,-19,-6,-2,-4,-3
1525807148624868,-3,-3,-6,4,-3,-15,-2,-3
1525807148636971,-3,-4,-10,-13,-5,3,-7,-4
1525807148636971,2,4,12,10,0,-2,0,1
1525807148643971,0,-4,-5,15,10,2,-3,-3
1525807148643971,0,-1,-6,-19,-13,-24,15,2
1525807148659971,1,1,8,28,2,2,-15,-4
1525807148659971,0,-3,-7,-25,-14,-7,-5,-1
1525807148661949,-1,-1,-1,5,-1,0,4,2
1525807148661949,-1,-1,4,1,-3,9,-5,-1
1525807148683007,1,3,7,6,1,2,9,1
1525807148683007,-1,1,-1,-5,3,-3,-4,0
1525807148684973,0,0,2,4,-4,-18,-1,1
1525807148684973,1,0,4,6,-1,9,-1,1
1525807148696990,0,-2,-3,-11,-5,-1,1,-2
1525807148696990,0,-1,-6,-9,2,3,1,-1
1525807148704055,-3,-2,-5,5,0,-3,-2,-3
1525807148704055,-2,0,1,3,-5,-13,-12,-2
1525807148720098,1,2,0,-9,2,18,12,3
1525807148720098,-1,-4,-4,-9,1,4,-3,-2
1525807148722064,0,-1,-2,4,3,3,-3,3
1525807148722064,2,1,5,2,0,0,-2,0
1525807148743094,-1,-1,-5,-10,-2,-7,-3,-2
1525807148743094,-3,-2,-1,-3,-2,10,11,-1
1525807148744090,-1,1,0,-2,-1,-3,-13,-2
1525807148744090,2,1,4,1,4,40,-2,1
1525807148757076,-1,-4,-6,-12,-11,-25,3,2
1525807148757076,1,-2,-3,16,12,15,1,-1
1525807148764063,0,-1,-1,-6,-5,-20,-3,-3
1525807148764063,1,0,2,4,8,15,-10,2
1525807148780068,-2,-1,2,-8,7,21,16,2
1525807148780068,-3,-1,1,5,6,-3,1,1
1525807148782063,-2,-1,1,-5,-11,1,-11,-5
1525807148782063,2,3,1,6,0,-36,4,2
1525807148803093,-1,-3,-2,-4,0,9,-17,-2
1525807148803093,0,-1,0,6,0,19,6,1
1525807148804100,-1,0,-1,-8,-3,-13,-2,-1
1525807148804100,0,-1,1,-4,-3,7,5,-1
1525807148817093,-2,-1,-2,16,8,-10,-1,0
1525807148817093,1,1,1,-5,-4,-10,-2,0
1525807148824093,0,1,0,6,8,14,0,1
1525807148824093,-4,-4,-8,-4,-6,-14,-6,-3
1525807148840093,1,1,6,0,4,5,3,1
1525807148840093,-1,0,-6,-10,-3,-10,-7,-1
1525807148842075,1,0,0,3,-4,6,6,1
1525807148842075,-1,0,3,-2,-2,-17,11,-1
1525807148870128,-1,-2,-9,-5,-4,-17,-17,-3
1525807148870128,-1,0,8,21,3,11,-7,-2
1525807148872089,0,0,-6,-19,-2,22,24,2
1525807148872089,-2,0,5,3,-3,-6,1,-2
1525807148877095,-2,-1,-2,4,3,-3,0,-1
1525807148877095,1,0,5,4,1,-6,-2,2
1525807148884094,-3,-4,-3,19,4,4,-4,-3
1525807148884094,-4,-6,-4,-26,-8,2,-6,-4
1525807148900093,4,5,1,-13,6,8,6,4
1525807148900093,3,2,-2,11,7,10,1,1
1525807148902061,-2,-3,-14,-24,-9,-9,0,-1
1525807148902061,0,-3,-3,1,0,7,0,-1
1525807148923077,-3,-4,4,4,-7,-18,-6,-3
1525807148923077,-3,-3,-2,-5,-2,-7,0,0
1525807148924067,-3,0,6,3,-5,-10,-10,-3
1525807148924067,8,10,-4,0,9,11,3,6
1525807148937095,-1,-1,-3,-4,-3,8,10,0
1525807148937095,-2,0,0,-8,-11,-17,-9,-5
1525807148951076,2,3,9,17,9,8,1,2
1525807148951076,-4,-3,-7,-2,1,26,-3,-1
1525807148960182,0,-2,2,11,5,10,9,0
1525807148960182,0,-1,0,-10,-8,-12,-3,0
1525807148962123,-1,-2,-1,-7,-2,-3,-9,-3
1525807148962123,-3,-1,2,-3,-9,-23,-2,-1
1525807148983130,-2,-1,1,3,2,22,-2,-3
1525807148983130,-2,-3,-7,-6,-1,-2,3,-1
1525807148984116,-1,0,2,1,-5,-21,-6,-1
1525807148984116,1,0,0,3,6,13,-4,0
1525807148996183,-3,-1,0,-1,-2,-16,3,-2
1525807148996183,-2,-3,-2,-2,-4,-7,-2,-3
1525807149005242,0,0,0,-3,-3,7,0,0
1525807149005242,-1,-2,-2,0,-2,3,-5,-2
1525807149020243,0,-2,1,1,-8,-13,-3,0
1525807149020243,-1,-1,-5,-8,0,8,-4,-2
1525807149022272,1,1,1,4,2,7,2,4
1525807149022272,0,-3,1,5,4,-10,1,-1
1525807149042242,-1,0,1,1,3,2,-1,-2
1525807149042242,1,-1,1,1,-1,2,4,1
1525807149049258,-3,-1,-2,-2,-3,0,-1,-5
1525807149049258,-1,1,3,5,-3,-7,-6,-1
1525807149056272,-1,-1,-5,-17,-12,-7,15,2
1525807149056272,-1,0,4,20,5,-20,-4,-1
1525807149065267,0,-2,-5,-27,1,13,-3,-1
1525807149065267,-1,1,1,6,4,-3,6,-2
1525807149081274,1,-2,0,-5,-9,-1,-4,-1
1525807149081274,-1,1,3,-7,-5,-12,0,2
1525807149082274,0,-2,-4,8,10,4,3,1
1525807149082274,-2,-1,0,16,-3,1,3,0
1525807149103282,0,0,-3,-32,-8,-2,-5,-2
1525807149103282,0,0,-9,3,6,1,1,0
1525807149104248,2,2,10,16,2,1,-2,1
1525807149104248,-3,-4,1,7,4,-6,1,-3
1525807149116274,-1,-2,-5,1,-1,2,-6,-1
1525807149116274,10,12,11,2,7,16,0,5
1525807149125241,1,0,3,8,0,-3,8,1
1525807149125241,-2,-3,-3,-17,-9,-7,-12,-4
1525807149140290,-5,-5,-1,4,1,2,-3,-3
1525807149140290,-3,-4,-6,-9,3,3,-1,-5
1525807149142294,2,3,3,7,-6,-1,6,2
1525807149142294,1,1,-1,-8,2,-6,-1,1
1525807149162315,1,5,3,23,8,-12,-1,3
1525807149162315,-3,-4,-6,-8,1,19,3,-2
1525807149164284,0,-1,0,8,-1,-34,-14,-1
1525807149164284,-1,-3,-3,-10,-5,-2,7,0
1525807149176296,-1,1,-1,4,-1,4,-5,-1
1525807149176296,-2,-3,-1,4,-2,-3,5,-2
1525807149185289,-3,-2,-6,-14,-8,-7,-6,-4
1525807149185289,1,2,1,10,6,8,3,4
1525807149200311,1,0,1,3,5,9,8,2
1525807149200311,-3,-2,-2,-9,-6,-3,-11,-3
1525807149202311,-3,-2,-2,-9,-3,8,1,-1
1525807149202311,0,1,-3,2,5,-13,-7,-3
1525807149222311,1,0,1,5,-1,4,2,2
1525807149222311,-3,-5,-3,-2,0,-3,2,-2
1525807149230280,3,-1,-6,-9,-6,-12,0,2
1525807149230280,-1,0,0,-2,4,19,6,-1
1525807149236311,0,0,3,6,6,-5,-2,0
1525807149236311,-2,-2,-4,-8,-4,-9,-1,-1
1525807149245281,-3,0,-2,-2,1,2,-1,-2
1525807149245281,0,0,-1,2,-3,-2,2,0
1525807149260280,0,-1,1,1,0,0,-4,-1
1525807149260280,-2,-2,-2,-6,-4,-1,-6,0
1525807149262327,1,1,7,11,5,3,6,1
1525807149262327,-3,-4,-8,0,6,7,3,1
1525807149283283,-1,-1,-3,-13,-7,-6,-13,-5
1525807149283283,3,1,2,6,2,-5,2,1
1525807149284281,-4,-2,-1,-4,-2,0,12,-3
1525807149284281,-1,0,0,-3,-11,-14,-21,-4
1525807149296298,1,0,1,2,3,3,-5,-1
1525807149296298,1,2,5,9,5,19,7,4
1525807149305281,1,0,0,1,-6,4,-1,0
1525807149305281,1,0,-3,-18,0,5,9,2
1525807149320311,-2,-2,-6,1,-4,-2,0,-2
1525807149320311,-3,-2,0,0,-4,-1,-3,-2
1525807149322295,1,1,-1,6,5,0,1,-1
1525807149322295,-1,-2,4,2,-6,2,-2,-1
1525807149343281,1,1,-1,9,-2,-3,-2,-2
1525807149343281,-4,-6,1,8,0,-5,-3,-1
1525807149344285,1,0,-9,-11,5,0,-2,3
1525807149344285,4,9,8,0,-1,-2,0,3
1525807149356311,-1,-2,3,4,-6,2,2,-1
1525807149356311,-2,0,-1,-2,-7,-19,-6,-4
1525807149365287,-5,-6,-1,2,11,9,-6,-3
1525807149365287,-1,-2,-1,12,1,10,-1,1
1525807149380281,1,4,1,-11,-1,0,18,5
1525807149380281,-1,0,-8,-21,-12,-14,-16,-4
1525807149388312,-5,-6,-3,12,5,8,-4,-3
1525807149388312,1,0,-1,-6,-4,-13,-10,-1
1525807149403279,-1,-2,2,1,0,9,8,-1
1525807149403279,-1,-1,2,12,8,-2,1,-1
1525807149404282,2,0,-4,-17,-8,-3,2,2
1525807149404282,-2,-1,-2,4,-1,-2,4,-3
1525807149425383,-1,-2,-3,-6,-1,-7,-8,-1
1525807149425383,1,1,0,1,4,7,6,2
1525807149427381,-1,0,2,-1,-5,-6,-7,-1
1525807149427381,1,1,1,-1,-4,-5,5,1
1525807149440365,-2,-2,-1,-12,-7,-7,-8,0
1525807149440365,0,-1,-8,13,12,10,5,1
1525807149442415,1,-1,-3,-9,-3,1,-2,0
1525807149442415,-2,-2,0,0,2,-4,0,-3
1525807149462397,0,-2,-6,-7,-12,-27,-12,0
1525807149462397,0,1,6,4,7,22,15,2
1525807149470363,0,-1,3,9,-4,-5,-12,-1
1525807149470363,-3,-5,-11,-29,-5,-7,0,-3
1525807149485366,1,2,8,12,10,4,4,1
1525807149485366,-1,-2,-5,-7,-8,-11,-4,0
1525807149487367,0,0,-1,3,-4,-8,3,-2
1525807149487367,-1,1,5,3,2,8,-3,0
1525807149500417,0,-1,-3,7,6,6,9,-1
1525807149500417,-1,-3,0,-11,-2,-1,3,1
1525807149502384,1,1,0,-1,-1,1,-2,1
1525807149502384,-3,0,3,7,-3,-10,-5,-3
1525807149523350,-3,-5,-5,-8,0,13,0,-2
1525807149523350,0,0,0,-1,5,0,6,1
1525807149524359,-1,0,5,20,7,0,-5,-2
1525807149524359,-2,0,-1,-4,1,15,4,1
1525807149545418,-2,0,-4,1,1,-8,-6,-4
1525807149545418,2,1,1,-12,-9,-1,-3,2
1525807149547367,0,0,0,-18,-5,1,14,0
1525807149547367,-3,-2,-5,14,5,-16,-15,-2
1525807149559363,-1,-1,-2,-18,-2,15,2,0
1525807149559363,-3,0,2,12,-4,0,-9,-5
1525807149566382,2,2,-4,0,2,0,7,4
1525807149566382,0,-1,-2,-8,-2,0,1,0
1525807149582416,-2,-1,-2,-1,1,-7,-7,-2
1525807149582416,-3,-6,-5,8,2,-6,-4,-3
1525807149589382,1,2,4,-2,1,7,4,0
1525807149589382,1,-1,1,17,-10,0,2,-2
1525807149605382,2,0,-4,-4,1,-13,-9,-1
1525807149605382,1,-1,0,-19,-8,-5,-1,0
1525807149607350,-2,-1,0,7,2,-3,-9,-1
1525807149607350,-2,-2,1,-4,-6,-6,6,-2
1525807149619385,0,0,-5,-5,-1,28,11,4
1525807149619385,1,2,1,6,1,-12,-6,-1
1525807149626350,0,-2,-2,-4,-9,-26,-9,-2
1525807149626350,0,-1,2,7,3,17,16,2
1525807149643358,-2,-1,1,3,0,-6,5,-1
1525807149643358,-3,0,2,7,3,10,2,-1
1525807149644354,0,-1,-5,-7,7,22,-14,-1
1525807149644354,-1,-2,-3,-7,-8,-18,-4,-4
1525807149665382,-1,-2,-1,5,-1,-2,-2,-3
1525807149665382,0,2,-2,-5,-6,-5,6,0
1525807149667352,-1,-2,1,7,2,-4,-1,-2
1525807149667352,0,-3,-5,-2,5,23,-2,1
1525807149679415,2,2,2,1,-6,-26,1,2
1525807149679415,0,0,-1,6,5,12,-11,0
1525807149686384,-2,-2,-2,-10,-7,-12,4,-2
1525807149686384,-2,-3,-3,-5,4,8,2,0
1525807149703385,0,-1,-1,2,6,11,-3,-1
1525807149703385,-1,-1,-4,-8,-4,-7,-5,-3
1525807149704353,0,0,2,5,1,2,1,2
1525807149704353,-1,1,0,-1,3,-3,-2,-1
1525807149724418,1,0,4,7,1,11,2,0
1525807149724418,0,-1,-1,8,9,4,4,0
1525807149725369,-3,-3,-3,0,-3,3,2,-1
1525807149725369,3,2,0,-4,2,6,1,2
1525807149739364,-2,-3,-4,1,-7,-3,-4,-4
1525807149739364,0,-1,1,5,-3,-1,-5,-1
1525807149747416,1,-2,-8,-23,-4,-1,-1,-1
1525807149747416,-2,-1,1,11,0,-9,-3,1
1525807149762383,-2,-1,-2,-15,-6,-5,-2,-2
1525807149762383,0,-3,-7,-16,-1,0,-1,1
1525807149763384,-1,-1,0,0,-2,-4,-1,-3
1525807149763384,0,-2,-2,8,-2,-7,0,-1
1525807149784415,-4,-5,-1,9,3,2,-2,-1
1525807149784415,4,6,1,-24,-3,16,14,5
1525807149792385,0,2,1,4,1,6,4,0
1525807149792385,0,-1,-4,-1,1,-4,-4,-4
1525807149799384,2,0,0,2,-5,3,6,4
1525807149799384,-7,-6,3,13,0,-11,-5,-7
1525807149807365,1,1,2,-6,3,16,-6,1
1525807149807365,5,5,-4,-19,0,7,4,7
1525807149822475,-3,0,0,15,6,-16,-16,-4
1525807149822475,-2,-1,0,-1,-8,-1,4,-2
1525807149823460,0,0,4,4,-5,6,2,1
1525807149823460,-4,-3,3,-5,-9,-7,17,0
1525807149844473,1,-2,-8,-21,9,-12,-29,-4
1525807149844473,-1,-2,1,9,-2,10,10,-3
1525807149845453,-3,1,4,20,10,0,4,0
1525807149845453,0,1,0,-9,-4,6,-9,-2
1525807149859441,2,2,7,6,-7,-25,11,3
1525807149859441,-2,0,2,1,-2,-18,-12,-4
1525807149867568,-2,-3,-4,-5,0,1,-1,-3
1525807149867568,-1,-1,-1,7,2,1,0,-3
1525807149882570,1,2,-3,-6,-6,-11,1,1
1525807149882570,1,0,-1,5,1,-3,-3,1
1525807149883526,-1,-2,-3,-6,-7,-11,4,0
1525807149883526,-4,-3,2,9,9,3,-4,-1
1525807149904532,0,0,3,4,-1,13,-1,-2
1525807149904532,0,-2,-5,-13,-4,-11,2,-1
1525807149905512,1,1,-1,0,-2,8,4,0
1525807149905512,0,1,1,-1,-2,5,-7,-1
1525807149919501,-2,-1,-1,-1,-4,-23,-1,0
1525807149919501,-1,0,-2,0,-1,10,1,0
1525807149927515,1,1,1,-7,-3,5,-2,0
1525807149927515,-1,-2,-2,8,5,-15,-11,-2
1525807149942530,-1,0,2,0,0,21,16,2
1525807149942530,2,1,4,1,-1,0,-2,3
1525807149942530,-2,-5,-6,-4,-6,-11,-12,-2
1525807149942530,-1,-1,-3,-13,0,9,11,0
1525807149964517,-1,1,1,-3,0,13,-2,1
1525807149964517,-1,-2,-2,7,4,-12,-11,-1
1525807149965512,0,-2,-2,-5,-2,-4,-2,-4
1525807149965512,1,-1,0,9,5,13,0,0
1525807149978533,0,-2,1,10,3,9,7,0
1525807149978533,0,1,-6,-21,-5,-11,-5,1
1525807149987635,-3,-4,-3,10,1,-9,-3,-3
1525807149987635,-4,-4,-1,-5,-9,-7,-4,-3
1525807150002591,2,4,6,11,10,9,5,2
1525807150002591,-1,-4,-6,7,5,7,6,1
1525807150002591,-1,0,-2,-9,-3,5,3,-2
1525807150002591,1,0,2,0,1,-12,-8,-1
1525807150024606,1,0,-1,2,0,4,3,-2
1525807150024606,-2,-3,0,5,-4,-4,-6,-1
1525807150025604,2,3,1,0,0,4,2,1
1525807150025604,-3,-2,-12,-13,-7,-5,-1,-2
1525807150047576,-4,-5,-2,-2,4,20,-4,-1
1525807150047576,3,4,2,6,9,11,6,3
1525807150048573,-2,-1,0,-5,-4,4,1,0
1525807150048573,0,-2,1,5,-8,-21,-2,-2
1525807150062584,5,6,-1,-9,0,11,9,4
1525807150062584,-1,-3,-1,0,-2,0,-8,-3
1525807150062584,0,0,2,2,6,5,-5,3
1525807150062584,-1,-1,2,-2,-5,-7,-3,-1
1525807150084589,-4,-7,-5,3,-1,-10,-5,-4
1525807150084589,-1,0,0,-8,-7,5,11,-2
1525807150085573,3,1,1,2,0,-13,-2,1
1525807150085573,1,2,2,9,11,22,10,6
1525807150098666,-4,-4,-8,-10,-5,-15,-16,-5
1525807150098666,-1,0,1,4,-7,-12,7,-1
1525807150107656,-2,-3,-1,3,3,-3,-3,-1
1525807150107656,1,1,2,-9,-5,-4,3,3
1525807150122634,-2,-4,-1,3,5,14,-3,-3
1525807150122634,0,-5,-5,-2,-1,-2,-5,-2
1525807150122634,0,0,-2,-3,-2,-2,0,-1
1525807150122634,-2,-1,1,0,0,2,0,-1
1525807150144701,-1,0,-4,-5,-3,-4,14,1
1525807150144701,-1,0,2,0,-5,-13,-18,-3
1525807150145647,0,1,1,-3,-3,-5,5,1
1525807150145647,1,0,-3,10,10,11,-1,1
1525807150158650,0,0,3,-1,0,-2,-5,1
1525807150158650,-1,-1,2,-9,-5,0,14,3
1525807150174667,-1,0,-4,2,1,0,3,0
1525807150174667,-1,-1,-1,-2,-2,-10,-7,-1
1525807150181667,0,0,0,-1,-8,-5,-8,-3
1525807150181667,-4,-2,-1,1,6,-3,-4,-5
1525807150182633,2,1,0,10,1,11,-1,2
1525807150182633,-4,1,1,0,-5,-10,-6,-6
1525807150204700,3,0,3,-6,-1,8,18,4
1525807150204700,0,3,2,0,2,5,-12,1
1525807150205647,-2,0,-3,-2,4,-2,3,-3
1525807150205647,-4,-6,-1,5,0,10,2,-9
1525807150218648,7,10,4,-3,1,-5,14,6
1525807150218648,-2,-2,1,-11,-4,0,-2,0
1525807150227651,-4,-6,-3,15,4,-2,-4,-3
1525807150227651,17,23,16,2,11,0,10,15
1525807150241666,-6,-9,-2,1,-7,-3,-12,-6
1525807150241666,3,4,0,0,0,2,11,5
1525807150242633,-4,-7,-4,0,-1,-8,-2,-2
1525807150242633,-2,-4,-3,-16,-11,2,-4,-2
1525807150264667,0,0,-2,14,7,-1,-5,-1
1525807150264667,3,4,8,6,2,-10,-1,0
1525807150265666,-2,-1,1,3,-6,2,-2,-1
1525807150265666,-2,-6,-7,-7,-5,-8,-5,-3
1525807150278702,-3,-6,-4,0,1,8,0,-2
1525807150278702,2,7,1,2,2,5,2,3
1525807150286703,3,4,8,3,-1,7,0,1
1525807150286703,-4,-4,-3,-6,-3,-12,-3,-2
1525807150302693,-2,-2,-3,-3,-4,-5,-3,-1
1525807150302693,-2,-4,-5,3,5,0,-8,-5
1525807150302693,-1,-1,-3,-5,-4,-9,14,2
1525807150302693,2,0,-2,-1,-5,11,-1,2
1525807150324703,-1,-2,0,1,1,-3,-7,0
1525807150324703,-4,-4,-2,1,2,4,1,-4
1525807150325709,2,3,2,-2,-3,0,-4,0
1525807150325709,-4,-6,-9,-24,-8,-18,0,-1
1525807150347754,2,3,3,8,19,29,6,3
1525807150347754,12,0,1,10,6,28,15,9
1525807150348721,-10,-1,-2,-13,-6,-5,-6,-4
1525807150348721,-1,-4,-1,4,-8,-5,5,-3
1525807150361786,-4,-3,-3,-5,-12,-7,-14,-5
1525807150361786,3,0,2,-1,0,-27,-12,1
1525807150362740,2,-2,-2,6,4,12,-2,-2
1525807150362740,0,0,3,10,-1,3,4,0
1525807150384840,1,1,-3,-15,-6,-5,1,1
1525807150384840,-5,-4,-2,19,4,-4,-4,-4
1525807150385823,0,-2,-7,-30,-16,-8,-4,-1
1525807150385823,-3,-3,-2,16,6,1,-2,-3
1525807150407838,0,-2,-2,-2,-1,-10,1,-1
1525807150407838,-4,0,0,-7,-3,8,5,0
1525807150408789,0,1,8,17,0,-9,-2,-4
1525807150408789,1,-2,-8,-11,7,3,-6,-2
1525807150421785,0,0,-2,2,-1,4,2,0
1525807150421785,-5,-1,1,-4,-10,-13,1,-4
1525807150422771,3,3,6,3,-4,-1,-3,-1
1525807150422771,-1,-1,-7,-3,14,12,-2,0
1525807150444838,-1,-1,-1,3,-3,-12,-6,1
1525807150444838,-4,-6,-8,-15,-8,5,2,-2
1525807150445824,-2,-2,1,-4,2,-8,9,2
1525807150445824,3,6,9,14,-1,21,-2,1
1525807150467788,1,2,0,6,13,4,-6,0
1525807150467788,-2,-2,-5,-11,-6,-14,-7,-2
1525807150468771,0,-1,0,18,5,4,8,1
1525807150468771,-5,-5,-9,-7,-10,-6,-4,-2
1525807150481786,-5,-5,-6,-2,-8,-3,0,-3
1525807150481786,2,3,5,5,7,8,5,3
1525807150489786,-2,-2,-1,-10,-4,-4,-6,-2
1525807150489786,-4,-4,2,4,-3,-19,-4,-3
1525807150504782,0,2,3,0,-2,4,-2,-1
1525807150504782,-3,-4,-2,-6,-11,-16,-6,-3
1525807150505804,-1,-1,-4,-5,0,9,4,-1
1525807150505804,1,0,1,3,3,-3,1,-1
1525807150527838,-1,0,1,5,-3,-4,-4,0
1525807150527838,-1,1,1,3,9,35,0,1
1525807150528789,0,0,1,14,4,-12,-5,-1
1525807150528789,-1,-4,-5,-12,-1,-5,-3,-2
1525807150541803,1,1,2,-14,-6,-6,0,0
1525807150541803,-3,-2,-2,5,-2,-6,-2,-3
1525807150542772,1,-1,-4,-2,1,2,-6,4
1525807150542772,-3,-2,2,8,2,1,-5,-5
1525807150564779,1,-3,-4,-13,-12,-34,19,-1
1525807150564779,0,1,2,11,17,59,10,1
1525807150565787,2,-1,0,-2,-1,-4,-1,1
1525807150565787,1,1,2,-10,-7,-4,3,3
1525807150587803,-2,-2,-2,9,0,-17,-11,-2
1525807150587803,-1,-1,-6,-7,-9,-13,-3,-2
1525807150588803,-1,0,0,-9,3,12,5,-1
1525807150588803,1,2,3,15,5,18,-1,2
1525807150601803,-1,0,4,2,-2,-19,-3,-2
1525807150601803,0,-1,-1,-7,-5,-18,0,1
1525807150602783,0,-1,-2,3,1,21,-3,-1
1525807150602783,-1,1,-3,-10,-9,-4,-1,-1
1525807150624838,0,0,-1,-2,3,17,-1,3
1525807150624838,-3,1,3,9,3,-11,-2,-3
1525807150625819,-2,-4,1,7,-13,-23,-7,-2
1525807150625819,6,9,0,-20,14,10,6,5
1525807150647805,-1,-3,-5,3,-1,6,4,-2
1525807150647805,1,-3,-3,-19,-12,-11,-17,-3
1525807150648803,-7,-4,-4,6,3,-4,-6,-3
1525807150648803,1,2,-1,-3,-4,-6,-8,2
1525807150661804,-6,-9,-7,-16,-8,3,-2,-3
1525807150661804,-2,-4,-5,-1,2,-9,-2,-2
1525807150662771,0,1,0,-4,-4,-2,1,0
1525807150662771,-3,-4,-2,2,-4,3,-2,0
1525807150684782,3,7,8,10,-2,0,-2,-1
1525807150684782,-7,-8,-5,-22,-2,-1,4,-3
1525807150685772,-2,-3,-7,8,7,-4,-3,-2
1525807150685772,-1,-4,-6,2,-1,-2,4,2
1525807150707803,-1,0,-1,13,12,18,2,1
1525807150707803,2,4,4,6,2,-1,3,0
1525807150708804,-1,-1,3,-3,4,-3,1,-2
1525807150708804,1,1,4,0,-1,12,4,1
1525807150721803,1,1,-2,-8,-2,-14,-12,1
1525807150721803,0,1,0,5,6,11,8,-1
1525807150722788,-1,0,-2,-9,3,-5,-1,1
1525807150722788,-1,1,5,14,5,7,9,-1
1525807150744803,0,-1,-3,-7,-7,2,-4,0
1525807150744803,-3,-1,-5,2,-4,-20,-2,0
1525807150745780,3,1,1,-3,2,19,-1,0
1525807150745780,-3,-5,-2,0,-10,-20,-4,-4
1525807150767803,-2,-1,0,4,6,8,4,-1
1525807150767803,0,1,0,-3,-4,-18,-3,-1
1525807150768806,-2,-1,-5,-9,-12,-15,12,2
1525807150768806,3,0,0,3,3,-16,-6,1
1525807150781772,-1,-2,-2,-6,-6,-11,-3,-2
1525807150781772,1,1,-1,2,-7,-3,-8,0
1525807150782772,2,2,1,-3,3,7,1,0
1525807150782772,0,-1,0,8,6,12,9,-1
1525807150804837,0,-1,0,0,2,-12,-1,0
1525807150804837,1,2,1,1,6,12,3,3
1525807150805809,0,1,2,-5,-3,3,-1,2
1525807150805809,-2,-1,2,2,-2,-5,-1,-3
1525807150827803,0,-2,1,0,1,7,-8,-1
1525807150827803,3,1,-5,-15,-9,-5,2,2
1525807150828803,-1,0,2,13,5,16,4,1
1525807150828803,-1,-3,-6,-9,-12,-23,-4,-1
1525807150841803,0,1,4,-6,2,11,4,0
1525807150841803,1,1,3,2,2,11,-5,2
1525807150842782,0,0,0,0,-5,-13,-3,-1
1525807150842782,-4,-5,-3,-3,2,7,5,-3
1525807150864880,1,5,7,15,-2,2,1,2
1525807150864880,-1,-2,1,-2,-4,-3,0,-3
1525807150865882,-1,-2,-10,0,14,7,-8,-2
1525807150865882,-4,-3,1,-5,-9,12,2,-3
1525807150894878,2,3,-1,-3,13,35,15,6
1525807150894878,-1,-1,1,25,6,-23,-22,-6
1525807150895847,-3,-7,-8,-30,-4,-6,4,-1
1525807150895847,1,2,5,3,-6,16,-6,0
1525807150901878,-4,-6,-8,-7,-2,-13,4,-4
1525807150901878,0,1,2,4,-1,-13,4,2
1525807150902857,-1,-1,4,4,-1,13,-3,-2
1525807150902857,-2,0,-4,3,0,-16,-4,-1
1525807150924913,0,1,1,-4,-4,-1,-2,-1
1525807150924913,1,-1,2,3,4,2,5,2
1525807150925896,-3,-4,-3,-5,-5,-1,-5,-5
1525807150925896,1,1,4,3,1,-11,4,2
1525807150947878,1,2,-1,3,4,2,-6,-1
1525807150947878,-1,-2,-4,-8,-11,-12,3,-1
1525807150948878,3,4,8,11,13,12,6,6
1525807150948878,-2,-2,-5,-3,0,1,-9,-2
1525807150961878,-2,-2,3,1,-3,-33,-4,-3
1525807150961878,0,-1,1,-5,0,50,13,2
1525807150969861,0,2,1,2,-5,-20,-12,-3
1525807150969861,-2,2,1,2,5,-5,0,-2
1525807150984964,-3,-2,-3,-9,-9,-11,-5,-1
1525807150984964,1,0,-4,5,7,-5,2,1
1525807150985930,0,1,0,-2,-6,1,3,-1
1525807150985930,-2,-1,1,5,3,-4,-4,-3
1525807151007900,1,-2,-6,-17,-12,10,3,2
1525807151007900,-1,0,1,17,14,0,-6,1
1525807151008931,-1,-2,-4,-14,-3,2,11,3
1525807151008931,1,-1,2,1,-3,-6,-7,-3
1525807151021914,-1,1,5,12,-2,12,11,1
1525807151021914,0,-2,-11,-35,-7,-12,-14,-2
1525807151029912,-2,-3,-14,3,6,2,1,-2
1525807151029912,-4,-2,-2,-4,-10,-11,-9,-3
1525807151045908,-4,-8,-4,9,6,5,1,-4
1525807151045908,10,14,8,5,9,10,10,9
1525807151046966,0,0,9,4,-7,-8,0,1
1525807151046966,-1,-3,-6,-15,-2,-6,1,-1
1525807151067930,-1,-2,-2,2,2,14,-4,-3
1525807151067930,-5,-6,1,8,-8,-11,3,-2
1525807151068929,-1,1,4,-17,-8,-3,-3,-1
1525807151068929,0,-3,-3,0,6,4,-1,4
1525807151081927,4,4,-4,-5,-4,-16,-5,2
1525807151081927,-4,-6,0,17,12,31,4,-2
1525807151089929,-2,-1,-1,-10,-12,-1,3,-2
1525807151089929,-1,-2,-3,13,9,8,6,2
1525807151104930,-4,-5,-6,-12,-3,-5,-4,-3
1525807151104930,-1,1,-1,2,-8,-13,-10,-3
1525807151105909,1,0,-1,7,5,2,0,1
1525807151105909,-1,-1,-1,-8,-10,-2,0,0
1525807151127986,1,3,1,0,1,0,-1,1
1525807151127986,1,1,2,5,1,-6,6,0
1525807151129014,0,-2,-2,-2,-1,7,4,-1
1525807151129014,2,0,-2,-2,-2,-4,2,0
1525807151150039,2,2,5,6,8,10,-2,0
1525807151150039,-3,-1,0,-6,-5,-2,-3,-2
1525807151150976,-1,-3,-4,4,2,-11,2,-1
1525807151150976,2,1,2,5,10,45,15,3
1525807151165005,2,3,3,10,9,-35,-2,2
1525807151165005,-2,-6,-2,-5,4,31,8,-3
1525807151165005,1,0,0,5,-6,-3,-6,1
1525807151165005,0,0,-1,1,-2,-7,3,-1
1525807151187988,-3,-2,-1,-8,-10,-10,-16,-5
1525807151187988,-1,0,-2,-9,-7,-8,0,0
1525807151188987,0,1,2,4,3,-2,-8,0
1525807151188987,0,1,3,-1,-2,-9,3,-1
1525807151201037,0,-3,-3,-4,2,15,2,1
1525807151201037,1,-2,-2,0,-3,-19,0,0
1525807151217089,-2,-2,1,-5,-4,-6,-6,-4
1525807151217089,-4,-2,3,29,12,-10,-8,-3
1525807151225052,0,-3,-4,-16,-2,15,7,0
1525807151225052,1,3,0,8,1,7,-3,0
1525807151225052,0,1,4,5,-2,-20,2,-2
1525807151225052,1,1,0,-15,-5,6,-13,0
1525807151248052,-1,-1,2,6,1,7,14,1
1525807151248052,0,0,5,-8,-6,11,6,-1
1525807151249053,-1,0,-2,14,7,3,-1,0
1525807151249053,-2,-3,-6,2,3,-8,-1,-1
1525807151261052,1,0,1,4,0,0,-3,-1
1525807151261052,-3,-2,-4,-21,-13,-21,-8,-2
1525807151270019,-1,1,2,3,7,9,3,1
1525807151270019,-3,-4,-2,-19,-8,-3,-3,-3
